#Date:= 2024-10-01T15:17:45.921383
#Sampling Rate(Hz):= 1000
#Labels:= LOD	ECG	TS
0	128	40
0	128	41
0	128	42
0	128	43
0	128	44
0	128	45
0	128	46
0	128	47
0	128	48
0	128	49
0	128	50
0	128	51
0	128	52
0	128	53
0	128	54
0	128	55
0	128	56
0	128	57
0	128	58
0	128	59
0	128	20
0	128	21
0	128	22
0	128	23
0	128	24
0	128	25
0	128	26
0	128	27
0	128	28
0	128	29
0	128	30
0	128	31
0	128	32
0	128	33
0	128	34
0	128	35
0	128	36
0	128	37
0	128	38
0	128	39
0	128	80
0	128	81
0	128	82
0	128	83
0	128	84
0	128	85
0	128	86
0	128	87
0	128	88
0	128	89
0	128	90
0	128	91
0	128	92
0	128	93
0	128	94
0	128	95
0	128	96
0	128	97
0	128	98
0	128	99
0	128	80
0	128	81
0	128	82
0	128	83
0	128	84
0	128	85
0	128	86
0	128	87
0	128	88
0	128	89
0	128	90
0	128	91
0	128	92
0	128	93
0	128	94
0	128	95
0	128	96
0	128	97
0	128	98
0	128	99
0	128	100
0	128	101
0	128	102
0	128	103
0	128	104
0	128	105
0	128	106
0	128	107
0	128	108
0	128	109
0	128	110
0	128	111
0	128	112
0	128	113
0	128	114
0	128	115
0	128	116
0	128	117
0	128	118
0	128	119
0	128	120
0	128	121
0	128	122
0	128	123
0	128	124
0	128	125
0	128	126
0	128	127
0	128	128
0	128	129
0	128	130
0	128	131
0	128	132
0	128	133
0	128	134
0	128	135
0	128	136
0	128	137
0	128	138
0	128	139
1	128	140
1	128	141
1	128	142
1	128	143
1	128	144
1	128	145
1	128	146
1	128	147
1	128	148
1	128	149
1	128	150
1	128	151
1	128	152
1	128	153
1	128	154
1	128	155
1	128	156
1	128	157
1	128	158
1	128	159
1	128	160
1	128	161
1	128	162
1	128	163
1	128	164
1	128	165
1	128	166
1	128	167
1	128	168
1	128	169
1	128	170
1	128	171
1	128	172
1	128	173
1	128	174
1	128	175
1	128	176
1	128	177
1	128	178
1	128	179
1	128	180
1	128	181
1	128	182
1	128	183
1	128	184
1	128	185
1	128	186
1	128	187
1	128	188
1	128	189
1	128	190
1	128	191
1	128	192
1	128	193
1	128	194
1	128	195
1	128	196
1	128	197
1	128	198
1	128	199
1	128	200
1	128	201
1	128	202
1	216	203
1	386	204
1	575	205
1	760	206
1	942	207
1	1112	208
1	1258	209
1	1377	210
1	1481	211
1	1560	212
1	1621	213
1	1665	214
1	1699	215
1	1715	216
1	1722	217
1	1721	218
1	1713	219
1	1701	220
1	1685	221
1	1670	222
1	1659	223
1	1647	224
1	1638	225
1	1634	226
1	1632	227
1	1633	228
1	1633	229
1	1634	230
1	1639	231
1	1646	232
1	1651	233
1	1660	234
1	1662	235
1	1667	236
1	1670	237
1	1672	238
1	1667	239
1	1659	240
1	1655	241
1	1648	242
1	1643	243
1	1639	244
1	1644	245
1	1645	246
1	1646	247
1	1649	248
1	1652	249
1	1658	250
1	1661	251
1	1670	252
1	1673	253
1	1678	254
1	1675	255
1	1679	256
1	1679	257
1	1677	258
1	1673	259
1	1674	260
1	1667	261
1	1660	262
1	1656	263
1	1651	264
1	1649	265
1	1647	266
1	1647	267
1	1652	268
1	1655	269
1	1655	270
1	1659	271
1	1664	272
1	1672	273
1	1678	274
1	1685	275
1	1686	276
1	1687	277
1	1685	278
1	1683	279
1	1675	280
1	1670	281
1	1662	282
1	1659	283
1	1655	284
1	1646	285
1	1641	286
1	1643	287
1	1645	288
1	1652	289
1	1661	290
1	1668	291
1	1674	292
1	1679	293
1	1683	294
1	1685	295
1	1686	296
1	1687	297
1	1686	298
1	1682	299
1	1669	300
1	1660	301
1	1658	302
1	1652	303
1	1648	304
1	1655	305
1	1655	306
1	1661	307
1	1693	308
1	1764	309
1	1880	310
1	2041	311
1	2266	312
1	2540	313
1	2864	314
1	3130	315
1	3130	316
1	3130	317
1	3130	318
1	3130	319
1	3130	320
1	3130	321
1	3130	322
1	3130	323
1	3130	324
1	3130	325
1	3130	326
1	3130	327
1	2960	328
1	2738	329
1	2555	330
1	2429	331
1	2364	332
1	2376	333
1	2455	334
1	2574	335
1	2729	336
1	2905	337
1	3062	338
1	3130	339
1	2571	360
1	2585	361
1	2538	362
1	2425	363
1	2241	364
1	2022	365
1	1776	366
1	1526	367
1	1288	368
1	1101	369
1	978	370
1	925	371
1	952	372
1	1042	373
1	1188	374
1	1381	375
1	1586	376
1	1791	377
1	1974	378
1	2105	379
1	3130	340
1	3130	341
1	3055	342
1	2888	343
1	2668	344
1	2368	345
1	2115	346
1	1831	347
1	1568	348
1	1360	349
1	1227	350
1	1175	351
1	1213	352
1	1316	353
1	1487	354
1	1706	355
1	1940	356
1	2145	357
1	2329	358
1	2485	359
1	2170	380
1	2147	381
1	2047	382
1	1867	383
1	1618	384
1	1330	385
1	1022	386
1	713	387
1	435	388
1	220	389
1	128	390
1	128	391
1	128	392
1	128	393
1	220	394
1	389	395
1	576	396
1	778	397
1	978	398
1	1125	399
1	1214	400
1	1229	401
1	1170	402
1	1007	403
1	740	404
1	391	405
1	128	406
1	128	407
1	128	408
1	128	409
1	128	410
1	128	411
1	128	412
1	128	413
1	128	414
1	128	415
1	128	416
1	128	417
1	128	418
1	128	419
1	128	420
1	128	421
1	128	422
1	128	423
1	128	424
1	128	425
1	128	426
1	128	427
1	128	428
1	128	429
1	128	430
1	128	431
1	128	432
1	128	433
1	128	434
1	128	435
1	128	436
1	128	437
1	128	438
1	128	439
1	128	440
1	128	441
1	128	442
1	128	443
1	128	444
1	128	445
1	128	446
1	128	447
1	128	448
1	128	449
1	128	450
1	128	451
1	128	452
1	128	453
1	128	454
1	128	455
1	128	456
1	128	457
1	128	458
1	128	459
1	128	460
1	128	461
1	128	462
1	128	463
1	128	464
1	128	465
1	128	466
1	128	467
1	128	468
1	128	469
1	128	470
1	128	471
1	128	472
1	128	473
1	128	474
1	128	475
1	128	476
1	128	477
1	128	478
1	128	479
1	128	480
1	128	481
1	128	482
1	128	483
1	128	484
1	128	485
1	128	486
1	128	487
1	128	488
1	128	489
1	128	490
1	128	491
1	128	492
1	128	493
1	128	494
1	128	495
1	128	496
1	128	497
1	128	498
1	128	499
1	128	500
1	128	501
1	128	502
1	128	503
1	128	504
1	128	505
1	128	506
1	128	507
1	128	508
1	128	509
1	128	510
1	128	511
1	128	512
1	128	513
1	128	514
1	128	515
1	128	516
1	128	517
1	128	518
1	128	519
1	128	520
1	128	521
1	128	522
1	128	523
1	128	524
1	128	525
1	128	526
1	128	527
1	128	528
1	128	529
1	128	530
1	128	531
1	128	532
1	128	533
1	128	534
1	128	535
1	128	536
1	128	537
1	128	538
1	128	539
1	128	540
1	128	541
1	128	542
1	128	543
1	128	544
1	128	545
1	128	546
1	128	547
1	128	548
1	128	549
1	128	550
1	128	551
1	128	552
1	128	553
1	128	554
1	128	555
1	128	556
1	128	557
1	128	558
1	128	559
1	128	560
1	128	561
1	128	562
1	128	563
1	128	564
1	128	565
1	128	566
1	128	567
1	128	568
1	128	569
1	128	570
1	128	571
1	128	572
1	128	573
1	128	574
1	128	575
1	128	576
1	128	577
1	128	578
1	128	579
1	128	580
1	128	581
1	128	582
1	128	583
1	128	584
1	128	585
1	128	586
1	128	587
1	128	588
1	128	589
1	128	590
1	128	591
1	128	592
1	128	593
1	128	594
1	128	595
1	175	596
1	418	597
1	706	598
1	985	599
1	1204	600
1	1319	601
1	1358	602
1	1310	603
1	1176	604
1	981	605
1	742	606
1	495	607
1	274	608
1	128	609
1	128	610
1	128	611
1	128	612
1	218	613
1	428	614
1	690	615
1	977	616
1	1289	617
1	1592	618
1	1847	619
1	2555	660
1	2588	661
1	2535	662
1	2374	663
1	2096	664
1	1757	665
1	1373	666
1	977	667
1	597	668
1	274	669
1	128	670
1	128	671
1	128	672
1	128	673
1	128	674
1	238	675
1	461	676
1	741	677
1	1031	678
1	1293	679
1	1494	680
1	1587	681
1	1579	682
1	1453	683
1	1215	684
1	894	685
1	521	686
1	135	687
1	128	688
1	128	689
1	128	690
1	128	691
1	128	692
1	128	693
1	128	694
1	128	695
1	128	696
1	128	697
1	128	698
1	128	699
1	3130	640
1	3130	641
1	3130	642
1	3130	643
1	3130	644
1	2972	645
1	2710	646
1	2368	647
1	2002	648
1	1678	649
1	1425	650
1	1256	651
1	1184	652
1	1201	653
1	1304	654
1	1474	655
1	1692	656
1	1948	657
1	2199	658
1	2417	659
1	2026	620
1	2132	621
1	2155	622
1	2105	623
1	1989	624
1	1820	625
1	1631	626
1	1449	627
1	1280	628
1	1161	629
1	1094	630
1	1101	631
1	1194	632
1	1394	633
1	1674	634
1	2011	635
1	2356	636
1	2704	637
1	3066	638
1	3130	639
1	128	700
1	128	701
1	128	702
1	128	703
1	128	704
1	128	705
1	128	706
1	128	707
1	128	708
1	128	709
1	128	710
1	128	711
1	128	712
1	128	713
1	128	714
1	128	715
1	128	716
1	128	717
1	128	718
1	128	719
1	128	740
1	128	741
1	128	742
1	128	743
1	128	744
1	128	745
1	128	746
1	128	747
1	128	748
1	128	749
1	128	750
1	128	751
1	128	752
1	128	753
1	128	754
1	128	755
1	128	756
1	128	757
1	128	758
1	128	759
1	128	720
1	128	721
1	128	722
1	128	723
1	128	724
1	128	725
1	128	726
1	128	727
1	128	728
1	128	729
1	128	730
1	128	731
1	128	732
1	128	733
1	128	734
1	128	735
1	128	736
1	128	737
1	128	738
1	128	739
1	128	780
1	128	781
1	128	782
1	128	783
1	128	784
1	128	785
1	128	786
1	128	787
1	128	788
1	128	789
1	128	790
1	128	791
1	128	792
1	128	793
1	128	794
1	128	795
1	128	796
1	128	797
1	128	798
1	128	799
1	128	760
1	128	761
1	128	762
1	128	763
1	128	764
1	128	765
1	128	766
1	128	767
1	128	768
1	128	769
1	128	770
1	128	771
1	128	772
1	128	773
1	128	774
1	128	775
1	128	776
1	128	777
1	128	778
1	128	779
1	128	800
1	128	801
1	128	802
1	128	803
1	128	804
1	128	805
1	128	806
1	128	807
1	128	808
1	128	809
1	128	810
1	128	811
1	128	812
1	128	813
1	128	814
1	128	815
1	128	816
1	128	817
1	128	818
1	128	819
1	128	820
1	128	821
1	128	822
1	128	823
1	128	824
1	128	825
1	128	826
1	128	827
1	128	828
1	128	829
1	128	830
1	128	831
1	128	832
1	128	833
1	128	834
1	128	835
1	128	836
1	128	837
1	128	838
1	128	839
1	128	840
1	128	841
1	128	842
1	128	843
1	128	844
1	128	845
1	128	846
1	128	847
1	128	848
1	128	849
1	128	850
1	128	851
1	128	852
1	128	853
1	128	854
1	128	855
1	128	856
1	128	857
1	128	858
1	128	859
1	128	860
1	128	861
1	128	862
1	128	863
1	128	864
1	128	865
1	128	866
1	128	867
1	128	868
1	128	869
1	128	870
1	128	871
1	128	872
1	128	873
1	128	874
1	128	875
1	128	876
1	128	877
1	128	878
1	128	879
1	128	880
1	128	881
1	128	882
1	128	883
1	128	884
1	128	885
1	128	886
1	128	887
1	128	888
1	128	889
1	128	890
1	128	891
1	128	892
1	128	893
1	128	894
1	128	895
1	128	896
1	128	897
1	128	898
1	128	899
1	128	900
1	128	901
1	128	902
1	128	903
1	128	904
1	128	905
1	128	906
1	128	907
1	128	908
1	128	909
1	128	910
1	128	911
1	128	912
1	128	913
1	128	914
1	128	915
1	128	916
1	128	917
1	128	918
1	128	919
1	128	920
1	128	921
1	128	922
1	128	923
1	128	924
1	128	925
1	128	926
1	128	927
1	128	928
1	128	929
1	128	930
1	128	931
1	128	932
1	128	933
1	128	934
1	128	935
1	128	936
1	128	937
1	128	938
1	128	939
1	128	940
1	128	941
1	128	942
1	128	943
1	128	944
1	128	945
1	128	946
1	128	947
1	128	948
1	128	949
1	128	950
1	128	951
1	128	952
1	128	953
1	128	954
1	128	955
1	128	956
1	128	957
1	128	958
1	128	959
1	128	960
1	128	961
1	128	962
1	128	963
1	128	964
1	128	965
1	128	966
1	128	967
1	128	968
1	128	969
1	128	970
1	128	971
1	128	972
1	128	973
1	128	974
1	128	975
1	128	976
1	128	977
1	128	978
1	128	979
1	128	980
1	128	981
1	128	982
1	128	983
1	128	984
1	128	985
1	128	986
1	128	987
1	128	988
1	128	989
1	128	990
1	128	991
1	128	992
1	128	993
1	128	994
1	128	995
1	128	996
1	128	997
1	128	998
1	128	999
1	128	1000
1	128	1001
1	128	1002
1	128	1003
1	128	1004
1	128	1005
1	128	1006
1	128	1007
1	128	1008
1	128	1009
1	128	1010
1	128	1011
1	128	1012
1	128	1013
1	128	1014
1	128	1015
1	128	1016
1	128	1017
1	128	1018
1	128	1019
1	128	1020
1	128	1021
1	128	1022
1	128	1023
1	128	1024
1	128	1025
1	128	1026
1	128	1027
1	128	1028
1	128	1029
1	128	1030
1	128	1031
1	128	1032
1	128	1033
1	128	1034
1	128	1035
1	128	1036
1	128	1037
1	128	1038
1	128	1039
1	128	1040
1	128	1041
1	128	1042
1	128	1043
1	128	1044
1	128	1045
1	128	1046
1	128	1047
1	128	1048
1	128	1049
1	128	1050
1	128	1051
1	128	1052
1	128	1053
1	128	1054
1	128	1055
1	128	1056
1	128	1057
1	128	1058
1	128	1059
1	128	1060
1	128	1061
1	128	1062
1	128	1063
1	128	1064
1	128	1065
1	128	1066
1	128	1067
1	128	1068
1	128	1069
1	128	1070
1	128	1071
1	128	1072
1	128	1073
1	128	1074
1	128	1075
1	128	1076
1	128	1077
1	128	1078
1	128	1079
1	128	1080
1	128	1081
1	128	1082
1	128	1083
1	128	1084
1	128	1085
1	128	1086
1	128	1087
1	128	1088
1	128	1089
1	128	1090
1	128	1091
1	128	1092
1	128	1093
1	128	1094
1	128	1095
1	128	1096
1	128	1097
1	128	1098
1	128	1099
1	128	1100
1	128	1101
1	128	1102
1	128	1103
1	128	1104
1	128	1105
1	128	1106
1	128	1107
1	128	1108
1	128	1109
1	128	1110
1	128	1111
1	128	1112
1	128	1113
1	128	1114
1	128	1115
1	128	1116
1	128	1117
1	128	1118
1	128	1119
1	128	1120
1	128	1121
1	128	1122
1	128	1123
1	128	1124
1	128	1125
1	128	1126
1	128	1127
1	128	1128
1	128	1129
1	128	1130
1	128	1131
1	128	1132
1	128	1133
1	128	1134
1	128	1135
1	128	1136
1	128	1137
1	128	1138
1	128	1139
1	128	1140
1	128	1141
1	128	1142
1	128	1143
1	128	1144
1	128	1145
1	128	1146
1	128	1147
1	128	1148
1	128	1149
1	128	1150
1	128	1151
1	128	1152
1	128	1153
1	128	1154
1	128	1155
1	128	1156
1	128	1157
1	128	1158
1	128	1159
1	128	1160
1	128	1161
1	128	1162
1	128	1163
1	128	1164
1	128	1165
1	128	1166
1	128	1167
1	128	1168
1	128	1169
1	128	1170
1	128	1171
1	128	1172
1	196	1173
1	276	1174
1	360	1175
1	436	1176
1	496	1177
1	540	1178
1	574	1179
1	585	1180
1	584	1181
1	564	1182
1	534	1183
1	502	1184
1	469	1185
1	443	1186
1	418	1187
1	403	1188
1	403	1189
1	421	1190
1	454	1191
1	495	1192
1	559	1193
1	630	1194
1	705	1195
1	775	1196
1	828	1197
1	860	1198
1	866	1199
1	851	1200
1	824	1201
1	792	1202
1	751	1203
1	705	1204
1	662	1205
1	617	1206
1	580	1207
1	552	1208
1	544	1209
1	560	1210
1	590	1211
1	637	1212
1	695	1213
1	768	1214
1	841	1215
1	898	1216
1	950	1217
1	990	1218
1	1008	1219
1	1014	1220
1	1003	1221
1	972	1222
1	938	1223
1	900	1224
1	859	1225
1	822	1226
1	795	1227
1	775	1228
1	783	1229
1	804	1230
1	840	1231
1	890	1232
1	953	1233
1	1029	1234
1	1102	1235
1	1166	1236
1	1224	1237
1	1260	1238
1	1282	1239
1	1707	1280
1	1692	1281
1	1668	1282
1	1640	1283
1	1606	1284
1	1570	1285
1	1541	1286
1	1514	1287
1	1494	1288
1	1489	1289
1	1485	1290
1	1503	1291
1	1539	1292
1	1595	1293
1	1663	1294
1	1738	1295
1	1798	1296
1	1847	1297
1	1875	1298
1	1886	1299
1	1490	1260
1	1465	1261
1	1433	1262
1	1395	1263
1	1346	1264
1	1304	1265
1	1267	1266
1	1239	1267
1	1219	1268
1	1222	1269
1	1239	1270
1	1267	1271
1	1312	1272
1	1371	1273
1	1446	1274
1	1521	1275
1	1581	1276
1	1639	1277
1	1682	1278
1	1700	1279
1	1281	1240
1	1262	1241
1	1228	1242
1	1188	1243
1	1139	1244
1	1080	1245
1	1045	1246
1	1007	1247
1	989	1248
1	993	1249
1	1013	1250
1	1044	1251
1	1092	1252
1	1154	1253
1	1228	1254
1	1304	1255
1	1380	1256
1	1447	1257
1	1487	1258
1	1503	1259
1	1881	1300
1	1864	1301
1	1837	1302
1	1795	1303
1	1753	1304
1	1703	1305
1	1672	1306
1	1647	1307
1	1634	1308
1	1641	1309
1	1664	1310
1	1697	1311
1	1738	1312
1	1791	1313
1	1857	1314
1	1926	1315
1	1993	1316
1	2047	1317
1	2079	1318
1	2088	1319
1	2073	1320
1	2045	1321
1	2003	1322
1	1953	1323
1	1903	1324
1	1861	1325
1	1829	1326
1	1802	1327
1	1790	1328
1	1791	1329
1	1801	1330
1	1827	1331
1	1863	1332
1	1910	1333
1	1971	1334
1	2034	1335
1	2096	1336
1	2145	1337
1	2179	1338
1	2197	1339
1	2434	1360
1	2422	1361
1	2394	1362
1	2353	1363
1	2305	1364
1	2245	1365
1	2209	1366
1	2168	1367
1	2135	1368
1	2123	1369
1	2131	1370
1	2152	1371
1	2184	1372
1	2237	1373
1	2296	1374
1	2362	1375
1	2419	1376
1	2471	1377
1	2503	1378
1	2515	1379
1	2194	1340
1	2175	1341
1	2146	1342
1	2106	1343
1	2066	1344
1	2016	1345
1	1966	1346
1	1924	1347
1	1899	1348
1	1895	1349
1	1909	1350
1	1940	1351
1	1998	1352
1	2063	1353
1	2140	1354
1	2230	1355
1	2297	1356
1	2353	1357
1	2393	1358
1	2420	1359
1	2509	1380
1	2493	1381
1	2461	1382
1	2415	1383
1	2359	1384
1	2314	1385
1	2266	1386
1	2232	1387
1	2208	1388
1	2209	1389
1	2230	1390
1	2262	1391
1	2309	1392
1	2367	1393
1	2433	1394
1	2499	1395
1	2540	1396
1	2587	1397
1	2619	1398
1	2629	1399
1	2629	1400
1	2603	1401
1	2570	1402
1	2524	1403
1	2482	1404
1	2422	1405
1	2372	1406
1	2337	1407
1	2314	1408
1	2315	1409
1	2336	1410
1	2365	1411
1	2412	1412
1	2474	1413
1	2540	1414
1	2619	1415
1	2675	1416
1	2725	1417
1	2756	1418
1	2768	1419
1	2762	1420
1	2737	1421
1	2694	1422
1	2653	1423
1	2604	1424
1	2558	1425
1	2518	1426
1	2487	1427
1	2466	1428
1	2458	1429
1	2463	1430
1	2485	1431
1	2515	1432
1	2555	1433
1	2612	1434
1	2669	1435
1	2725	1436
1	2777	1437
1	2815	1438
1	2830	1439
1	2828	1440
1	2810	1441
1	2782	1442
1	2737	1443
1	2685	1444
1	2639	1445
1	2599	1446
1	2563	1447
1	2543	1448
1	2536	1449
1	2547	1450
1	2574	1451
1	2620	1452
1	2671	1453
1	2734	1454
1	2809	1455
1	2855	1456
1	2900	1457
1	2924	1458
1	2927	1459
1	2914	1460
1	2878	1461
1	2833	1462
1	2782	1463
1	2731	1464
1	2684	1465
1	2642	1466
1	2602	1467
1	2580	1468
1	2574	1469
1	2584	1470
1	2612	1471
1	2662	1472
1	2724	1473
1	2794	1474
1	2871	1475
1	2944	1476
1	2995	1477
1	3025	1478
1	3035	1479
1	3032	1480
1	3007	1481
1	2963	1482
1	2913	1483
1	2853	1484
1	2790	1485
1	2748	1486
1	2710	1487
1	2685	1488
1	2677	1489
1	2685	1490
1	2701	1491
1	2735	1492
1	2782	1493
1	2847	1494
1	2916	1495
1	2981	1496
1	3039	1497
1	3078	1498
1	3095	1499
1	3097	1500
1	3071	1501
1	3031	1502
1	2987	1503
1	2934	1504
1	2884	1505
1	2842	1506
1	2803	1507
1	2773	1508
1	2761	1509
1	2761	1510
1	2773	1511
1	2805	1512
1	2854	1513
1	2916	1514
1	2990	1515
1	3046	1516
1	3096	1517
1	3130	1518
1	3130	1519
1	3124	1520
1	3088	1521
1	3049	1522
1	3003	1523
1	2947	1524
1	2893	1525
1	2846	1526
1	2810	1527
1	2780	1528
1	2765	1529
1	2773	1530
1	2793	1531
1	2833	1532
1	2879	1533
1	2940	1534
1	3013	1535
1	3077	1536
1	3130	1537
1	3130	1538
1	3130	1539
1	3130	1540
1	3130	1541
1	3102	1542
1	3059	1543
1	3007	1544
1	2947	1545
1	2916	1546
1	2876	1547
1	2845	1548
1	2832	1549
1	2836	1550
1	2854	1551
1	2882	1552
1	2924	1553
1	2975	1554
1	3031	1555
1	3084	1556
1	3126	1557
1	3130	1558
1	3130	1559
1	3130	1560
1	3123	1561
1	3078	1562
1	3025	1563
1	2967	1564
1	2916	1565
1	2873	1566
1	2835	1567
1	2811	1568
1	2804	1569
1	2813	1570
1	2837	1571
1	2873	1572
1	2917	1573
1	2973	1574
1	3043	1575
1	3089	1576
1	3130	1577
1	3130	1578
1	3130	1579
1	3130	1600
1	3130	1601
1	3091	1602
1	3040	1603
1	2978	1604
1	2918	1605
1	2870	1606
1	2825	1607
1	2795	1608
1	2777	1609
1	2783	1610
1	2803	1611
1	2841	1612
1	2888	1613
1	2952	1614
1	3019	1615
1	3080	1616
1	3126	1617
1	3130	1618
1	3130	1619
1	3130	1580
1	3130	1581
1	3102	1582
1	3050	1583
1	2988	1584
1	2931	1585
1	2877	1586
1	2828	1587
1	2793	1588
1	2779	1589
1	2784	1590
1	2808	1591
1	2844	1592
1	2888	1593
1	2949	1594
1	3013	1595
1	3075	1596
1	3130	1597
1	3130	1598
1	3130	1599
1	3130	1620
1	3130	1621
1	3098	1622
1	3050	1623
1	2987	1624
1	2941	1625
1	2888	1626
1	2845	1627
1	2808	1628
1	2791	1629
1	2782	1630
1	2795	1631
1	2827	1632
1	2874	1633
1	2933	1634
1	3011	1635
1	3063	1636
1	3113	1637
1	3130	1638
1	3130	1639
1	3130	1680
1	3130	1681
1	3130	1682
1	3130	1683
1	3130	1684
1	3130	1685
1	3130	1686
1	3130	1687
1	3130	1688
1	3130	1689
1	3130	1690
1	3130	1691
1	3130	1692
1	3130	1693
1	3130	1694
1	3130	1695
1	3130	1696
1	3130	1697
1	3130	1698
1	3130	1699
1	3130	1640
1	3130	1641
1	3102	1642
1	3046	1643
1	2990	1644
1	2935	1645
1	2885	1646
1	2847	1647
1	2823	1648
1	2813	1649
1	2818	1650
1	2830	1651
1	2861	1652
1	2906	1653
1	2970	1654
1	3041	1655
1	3119	1656
1	3130	1657
1	3130	1658
1	3130	1659
1	3130	1660
1	3130	1661
1	3130	1662
1	3130	1663
1	3130	1664
1	3130	1665
1	3130	1666
1	3130	1667
1	3130	1668
1	3130	1669
1	3130	1670
1	3130	1671
1	3130	1672
1	3130	1673
1	3130	1674
1	3130	1675
1	3130	1676
1	3130	1677
1	3130	1678
1	3130	1679
1	3130	1700
1	3130	1701
1	3130	1702
1	3130	1703
1	3130	1704
1	3090	1705
1	2998	1706
1	2915	1707
1	2852	1708
1	2806	1709
1	2783	1710
1	2784	1711
1	2801	1712
1	2837	1713
1	2886	1714
1	2946	1715
1	3004	1716
1	3052	1717
1	3080	1718
1	3088	1719
1	3025	1740
1	2992	1741
1	2946	1742
1	2891	1743
1	2829	1744
1	2767	1745
1	2721	1746
1	2677	1747
1	2647	1748
1	2643	1749
1	2652	1750
1	2677	1751
1	2717	1752
1	2768	1753
1	2829	1754
1	2901	1755
1	2941	1756
1	2988	1757
1	3018	1758
1	3020	1759
1	3086	1720
1	3057	1721
1	3012	1722
1	2961	1723
1	2900	1724
1	2842	1725
1	2795	1726
1	2760	1727
1	2734	1728
1	2722	1729
1	2725	1730
1	2737	1731
1	2766	1732
1	2801	1733
1	2862	1734
1	2923	1735
1	2975	1736
1	3021	1737
1	3048	1738
1	3050	1739
1	3011	1760
1	2987	1761
1	2952	1762
1	2908	1763
1	2857	1764
1	2808	1765
1	2764	1766
1	2727	1767
1	2700	1768
1	2688	1769
1	2688	1770
1	2704	1771
1	2735	1772
1	2774	1773
1	2829	1774
1	2888	1775
1	2947	1776
1	3004	1777
1	3044	1778
1	3060	1779
1	3052	1780
1	3018	1781
1	2966	1782
1	2901	1783
1	2839	1784
1	2771	1785
1	2726	1786
1	2686	1787
1	2660	1788
1	2645	1789
1	2647	1790
1	2664	1791
1	2704	1792
1	2755	1793
1	2818	1794
1	2884	1795
1	2945	1796
1	2993	1797
1	3020	1798
1	3025	1799
1	3016	1800
1	2982	1801
1	2940	1802
1	2878	1803
1	2810	1804
1	2751	1805
1	2703	1806
1	2665	1807
1	2644	1808
1	2643	1809
1	2653	1810
1	2676	1811
1	2707	1812
1	2751	1813
1	2806	1814
1	2870	1815
1	2914	1816
1	2953	1817
1	2980	1818
1	2987	1819
1	2974	1820
1	2940	1821
1	2894	1822
1	2849	1823
1	2791	1824
1	2725	1825
1	2673	1826
1	2628	1827
1	2595	1828
1	2580	1829
1	2581	1830
1	2605	1831
1	2644	1832
1	2699	1833
1	2767	1834
1	2843	1835
1	2905	1836
1	2958	1837
1	2990	1838
1	3004	1839
1	2992	1840
1	2960	1841
1	2915	1842
1	2861	1843
1	2803	1844
1	2735	1845
1	2699	1846
1	2656	1847
1	2626	1848
1	2612	1849
1	2620	1850
1	2644	1851
1	2673	1852
1	2707	1853
1	2753	1854
1	2804	1855
1	2852	1856
1	2896	1857
1	2933	1858
1	2952	1859
1	2955	1860
1	2940	1861
1	2908	1862
1	2871	1863
1	2828	1864
1	2788	1865
1	2748	1866
1	2712	1867
1	2687	1868
1	2673	1869
1	2671	1870
1	2685	1871
1	2712	1872
1	2752	1873
1	2806	1874
1	2876	1875
1	2928	1876
1	2974	1877
1	3006	1878
1	3024	1879
1	2983	1900
1	2961	1901
1	2923	1902
1	2873	1903
1	2818	1904
1	2745	1905
1	2698	1906
1	2651	1907
1	2617	1908
1	2593	1909
1	2592	1910
1	2604	1911
1	2637	1912
1	2677	1913
1	2732	1914
1	2788	1915
1	2843	1916
1	2889	1917
1	2916	1918
1	2932	1919
1	3018	1880
1	2992	1881
1	2953	1882
1	2900	1883
1	2845	1884
1	2787	1885
1	2737	1886
1	2695	1887
1	2658	1888
1	2640	1889
1	2627	1890
1	2635	1891
1	2657	1892
1	2695	1893
1	2744	1894
1	2808	1895
1	2869	1896
1	2921	1897
1	2960	1898
1	2978	1899
1	2936	1920
1	2924	1921
1	2889	1922
1	2846	1923
1	2789	1924
1	2735	1925
1	2688	1926
1	2644	1927
1	2610	1928
1	2597	1929
1	2599	1930
1	2607	1931
1	2639	1932
1	2677	1933
1	2732	1934
1	2789	1935
1	2836	1936
1	2878	1937
1	2900	1938
1	2900	1939
1	2710	1960
1	2679	1961
1	2642	1962
1	2591	1963
1	2538	1964
1	2488	1965
1	2427	1966
1	2381	1967
1	2346	1968
1	2330	1969
1	2335	1970
1	2346	1971
1	2374	1972
1	2416	1973
1	2471	1974
1	2520	1975
1	2571	1976
1	2609	1977
1	2633	1978
1	2640	1979
1	2887	1940
1	2845	1941
1	2787	1942
1	2725	1943
1	2664	1944
1	2601	1945
1	2550	1946
1	2515	1947
1	2491	1948
1	2476	1949
1	2477	1950
1	2485	1951
1	2504	1952
1	2533	1953
1	2573	1954
1	2625	1955
1	2674	1956
1	2709	1957
1	2729	1958
1	2727	1959
1	2630	1980
1	2601	1981
1	2559	1982
1	2514	1983
1	2457	1984
1	2401	1985
1	2342	1986
1	2294	1987
1	2262	1988
1	2246	1989
1	2240	1990
1	2255	1991
1	2278	1992
1	2317	1993
1	2369	1994
1	2425	1995
1	2471	1996
1	2507	1997
1	2528	1998
1	2535	1999
1	2535	2000
1	2515	2001
1	2485	2002
1	2440	2003
1	2389	2004
1	2337	2005
1	2287	2006
1	2238	2007
1	2204	2008
1	2184	2009
1	2184	2010
1	2193	2011
1	2220	2012
1	2262	2013
1	2310	2014
1	2367	2015
1	2417	2016
1	2451	2017
1	2473	2018
1	2475	2019
1	2459	2040
1	2420	2041
1	2375	2042
1	2324	2043
1	2262	2044
1	2197	2045
1	2152	2046
1	2109	2047
1	2079	2048
1	2074	2049
1	2081	2050
1	2109	2051
1	2147	2052
1	2192	2053
1	2249	2054
1	2305	2055
1	2345	2056
1	2385	2057
1	2408	2058
1	2408	2059
1	2455	2020
1	2419	2021
1	2366	2022
1	2318	2023
1	2263	2024
1	2207	2025
1	2157	2026
1	2119	2027
1	2090	2028
1	2079	2029
1	2083	2030
1	2107	2031
1	2140	2032
1	2188	2033
1	2261	2034
1	2322	2035
1	2382	2036
1	2432	2037
1	2460	2038
1	2470	2039
1	2402	2060
1	2369	2061
1	2327	2062
1	2275	2063
1	2214	2064
1	2157	2065
1	2111	2066
1	2073	2067
1	2050	2068
1	2037	2069
1	2040	2070
1	2043	2071
1	2063	2072
1	2091	2073
1	2131	2074
1	2189	2075
1	2248	2076
1	2291	2077
1	2327	2078
1	2341	2079
1	2342	2080
1	2327	2081
1	2300	2082
1	2263	2083
1	2211	2084
1	2162	2085
1	2106	2086
1	2053	2087
1	2012	2088
1	1980	2089
1	1975	2090
1	1988	2091
1	2015	2092
1	2057	2093
1	2113	2094
1	2174	2095
1	2237	2096
1	2288	2097
1	2315	2098
1	2326	2099
1	2316	2100
1	2281	2101
1	2236	2102
1	2182	2103
1	2124	2104
1	2076	2105
1	2026	2106
1	1982	2107
1	1953	2108
1	1948	2109
1	1949	2110
1	1967	2111
1	1999	2112
1	2035	2113
1	2089	2114
1	2152	2115
1	2198	2116
1	2251	2117
1	2282	2118
1	2291	2119
1	2289	2120
1	2260	2121
1	2197	2122
1	2148	2123
1	2086	2124
1	2012	2125
1	1947	2126
1	1894	2127
1	1858	2128
1	1844	2129
1	1847	2130
1	1866	2131
1	1899	2132
1	1948	2133
1	2004	2134
1	2069	2135
1	2122	2136
1	2165	2137
1	2188	2138
1	2201	2139
1	2186	2140
1	2159	2141
1	2122	2142
1	2079	2143
1	2035	2144
1	1991	2145
1	1948	2146
1	1908	2147
1	1879	2148
1	1861	2149
1	1859	2150
1	1879	2151
1	1906	2152
1	1944	2153
1	1994	2154
1	2050	2155
1	2097	2156
1	2135	2157
1	2156	2158
1	2157	2159
1	2149	2160
1	2118	2161
1	2079	2162
1	2039	2163
1	1983	2164
1	1933	2165
1	1878	2166
1	1832	2167
1	1792	2168
1	1772	2169
1	1766	2170
1	1775	2171
1	1798	2172
1	1838	2173
1	1881	2174
1	1935	2175
1	1983	2176
1	2031	2177
1	2071	2178
1	2088	2179
1	2094	2180
1	2075	2181
1	2038	2182
1	1997	2183
1	1945	2184
1	1894	2185
1	1843	2186
1	1792	2187
1	1760	2188
1	1742	2189
1	1742	2190
1	1751	2191
1	1780	2192
1	1825	2193
1	1872	2194
1	1932	2195
1	1980	2196
1	2019	2197
1	2040	2198
1	2047	2199
1	2030	2200
1	2003	2201
1	1967	2202
1	1922	2203
1	1872	2204
1	1825	2205
1	1769	2206
1	1731	2207
1	1705	2208
1	1692	2209
1	1707	2210
1	1723	2211
1	1751	2212
1	1791	2213
1	1842	2214
1	1885	2215
1	1919	2216
1	1944	2217
1	1953	2218
1	1950	2219
1	1939	2240
1	1922	2241
1	1890	2242
1	1845	2243
1	1794	2244
1	1740	2245
1	1692	2246
1	1651	2247
1	1620	2248
1	1604	2249
1	1605	2250
1	1611	2251
1	1638	2252
1	1675	2253
1	1727	2254
1	1782	2255
1	1843	2256
1	1882	2257
1	1908	2258
1	1914	2259
1	1934	2220
1	1899	2221
1	1867	2222
1	1827	2223
1	1780	2224
1	1737	2225
1	1702	2226
1	1664	2227
1	1638	2228
1	1626	2229
1	1628	2230
1	1634	2231
1	1660	2232
1	1688	2233
1	1733	2234
1	1779	2235
1	1830	2236
1	1874	2237
1	1908	2238
1	1931	2239
1	1901	2260
1	1870	2261
1	1827	2262
1	1767	2263
1	1710	2264
1	1654	2265
1	1602	2266
1	1563	2267
1	1540	2268
1	1534	2269
1	1543	2270
1	1557	2271
1	1581	2272
1	1608	2273
1	1646	2274
1	1686	2275
1	1729	2276
1	1764	2277
1	1786	2278
1	1794	2279
1	1791	2280
1	1764	2281
1	1734	2282
1	1698	2283
1	1661	2284
1	1636	2285
1	1614	2286
1	1590	2287
1	1568	2288
1	1555	2289
1	1554	2290
1	1565	2291
1	1590	2292
1	1626	2293
1	1671	2294
1	1716	2295
1	1746	2296
1	1770	2297
1	1788	2298
1	1791	2299
1	1782	2300
1	1752	2301
1	1712	2302
1	1672	2303
1	1626	2304
1	1581	2305
1	1542	2306
1	1511	2307
1	1488	2308
1	1476	2309
1	1487	2310
1	1505	2311
1	1543	2312
1	1589	2313
1	1644	2314
1	1699	2315
1	1744	2316
1	1780	2317
1	1799	2318
1	1800	2319
1	1782	2320
1	1746	2321
1	1695	2322
1	1660	2323
1	1608	2324
1	1562	2325
1	1520	2326
1	1481	2327
1	1455	2328
1	1446	2329
1	1445	2330
1	1456	2331
1	1479	2332
1	1510	2333
1	1561	2334
1	1618	2335
1	1669	2336
1	1711	2337
1	1738	2338
1	1742	2339
1	1736	2340
1	1701	2341
1	1665	2342
1	1632	2343
1	1592	2344
1	1546	2345
1	1516	2346
1	1481	2347
1	1450	2348
1	1436	2349
1	1433	2350
1	1449	2351
1	1476	2352
1	1520	2353
1	1571	2354
1	1633	2355
1	1682	2356
1	1730	2357
1	1763	2358
1	1770	2359
1	1764	2360
1	1738	2361
1	1704	2362
1	1665	2363
1	1621	2364
1	1580	2365
1	1543	2366
1	1507	2367
1	1477	2368
1	1458	2369
1	1452	2370
1	1454	2371
1	1476	2372
1	1508	2373
1	1555	2374
1	1607	2375
1	1654	2376
1	1692	2377
1	1715	2378
1	1722	2379
1	1715	2380
1	1698	2381
1	1664	2382
1	1625	2383
1	1573	2384
1	1523	2385
1	1476	2386
1	1436	2387
1	1407	2388
1	1395	2389
1	1399	2390
1	1419	2391
1	1449	2392
1	1494	2393
1	1553	2394
1	1613	2395
1	1672	2396
1	1717	2397
1	1747	2398
1	1755	2399
1	1738	2400
1	1695	2401
1	1644	2402
1	1592	2403
1	1537	2404
1	1485	2405
1	1437	2406
1	1393	2407
1	1356	2408
1	1346	2409
1	1347	2410
1	1371	2411
1	1407	2412
1	1449	2413
1	1502	2414
1	1558	2415
1	1599	2416
1	1638	2417
1	1662	2418
1	1675	2419
1	1669	2420
1	1634	2421
1	1573	2422
1	1527	2423
1	1467	2424
1	1402	2425
1	1347	2426
1	1308	2427
1	1281	2428
1	1274	2429
1	1286	2430
1	1319	2431
1	1361	2432
1	1418	2433
1	1476	2434
1	1530	2435
1	1578	2436
1	1613	2437
1	1634	2438
1	1643	2439
1	1629	2440
1	1597	2441
1	1552	2442
1	1499	2443
1	1437	2444
1	1372	2445
1	1319	2446
1	1277	2447
1	1247	2448
1	1236	2449
1	1239	2450
1	1269	2451
1	1317	2452
1	1371	2453
1	1436	2454
1	1503	2455
1	1561	2456
1	1607	2457
1	1634	2458
1	1641	2459
1	1626	2460
1	1584	2461
1	1539	2462
1	1484	2463
1	1426	2464
1	1366	2465
1	1315	2466
1	1274	2467
1	1246	2468
1	1231	2469
1	1233	2470
1	1250	2471
1	1286	2472
1	1332	2473
1	1393	2474
1	1453	2475
1	1502	2476
1	1542	2477
1	1569	2478
1	1580	2479
1	1580	2500
1	1582	2501
1	1581	2502
1	1572	2503
1	1556	2504
1	1541	2505
1	1520	2506
1	1506	2507
1	1503	2508
1	1521	2509
1	1552	2510
1	1593	2511
1	1651	2512
1	1722	2513
1	1809	2514
1	1897	2515
1	1976	2516
1	2048	2517
1	2102	2518
1	2133	2519
1	1571	2500
1	1541	2501
1	1502	2502
1	1451	2503
1	1399	2504
1	1341	2505
1	1296	2506
1	1261	2507
1	1235	2508
1	1216	2509
1	1217	2510
1	1227	2511
1	1250	2512
1	1284	2513
1	1336	2514
1	1398	2515
1	1449	2516
1	1498	2517
1	1537	2518
1	1563	2519
1	2155	2520
1	2147	2521
1	2129	2522
1	2093	2523
1	2047	2524
1	1987	2525
1	1942	2526
1	1887	2527
1	1836	2528
1	1809	2529
1	1783	2530
1	1769	2531
1	1764	2532
1	1764	2533
1	1764	2534
1	1768	2535
1	1765	2536
1	1759	2537
1	1741	2538
1	1715	2539
1	1663	2540
1	1602	2541
1	1528	2542
1	1450	2543
1	1377	2544
1	1310	2545
1	1256	2546
1	1215	2547
1	1183	2548
1	1167	2549
1	1173	2550
1	1188	2551
1	1222	2552
1	1267	2553
1	1331	2554
1	1395	2555
1	1452	2556
1	1494	2557
1	1521	2558
1	1526	2559
1	1513	2560
1	1486	2561
1	1450	2562
1	1413	2563
1	1363	2564
1	1316	2565
1	1271	2566
1	1240	2567
1	1215	2568
1	1211	2569
1	1215	2570
1	1239	2571
1	1276	2572
1	1327	2573
1	1382	2574
1	1441	2575
1	1488	2576
1	1528	2577
1	1552	2578
1	1557	2579
1	1554	2580
1	1525	2581
1	1484	2582
1	1434	2583
1	1377	2584
1	1329	2585
1	1290	2586
1	1258	2587
1	1238	2588
1	1233	2589
1	1242	2590
1	1265	2591
1	1293	2592
1	1332	2593
1	1379	2594
1	1440	2595
1	1489	2596
1	1530	2597
1	1555	2598
1	1567	2599
1	1559	2600
1	1531	2601
1	1489	2602
1	1441	2603
1	1392	2604
1	1343	2605
1	1302	2606
1	1266	2607
1	1238	2608
1	1225	2609
1	1228	2610
1	1242	2611
1	1276	2612
1	1320	2613
1	1380	2614
1	1448	2615
1	1506	2616
1	1556	2617
1	1593	2618
1	1607	2619
1	1603	2620
1	1571	2621
1	1517	2622
1	1476	2623
1	1422	2624
1	1358	2625
1	1311	2626
1	1273	2627
1	1244	2628
1	1232	2629
1	1230	2630
1	1247	2631
1	1280	2632
1	1328	2633
1	1395	2634
1	1451	2635
1	1506	2636
1	1553	2637
1	1580	2638
1	1584	2639
1	1577	2640
1	1548	2641
1	1512	2642
1	1469	2643
1	1424	2644
1	1372	2645
1	1335	2646
1	1301	2647
1	1278	2648
1	1277	2649
1	1288	2650
1	1310	2651
1	1344	2652
1	1391	2653
1	1445	2654
1	1502	2655
1	1550	2656
1	1594	2657
1	1623	2658
1	1632	2659
1	1626	2660
1	1598	2661
1	1561	2662
1	1517	2663
1	1461	2664
1	1401	2665
1	1346	2666
1	1305	2667
1	1274	2668
1	1263	2669
1	1268	2670
1	1287	2671
1	1324	2672
1	1374	2673
1	1440	2674
1	1512	2675
1	1572	2676
1	1620	2677
1	1647	2678
1	1660	2679
1	1652	2680
1	1631	2681
1	1593	2682
1	1551	2683
1	1502	2684
1	1450	2685
1	1398	2686
1	1350	2687
1	1319	2688
1	1305	2689
1	1317	2690
1	1340	2691
1	1379	2692
1	1428	2693
1	1483	2694
1	1540	2695
1	1594	2696
1	1639	2697
1	1670	2698
1	1685	2699
1	1678	2700
1	1647	2701
1	1611	2702
1	1571	2703
1	1526	2704
1	1479	2705
1	1436	2706
1	1395	2707
1	1363	2708
1	1354	2709
1	1367	2710
1	1398	2711
1	1437	2712
1	1485	2713
1	1544	2714
1	1604	2715
1	1656	2716
1	1700	2717
1	1728	2718
1	1740	2719
1	1739	2720
1	1723	2721
1	1683	2722
1	1647	2723
1	1598	2724
1	1539	2725
1	1489	2726
1	1450	2727
1	1420	2728
1	1402	2729
1	1398	2730
1	1411	2731
1	1443	2732
1	1490	2733
1	1546	2734
1	1609	2735
1	1662	2736
1	1710	2737
1	1746	2738
1	1765	2739
1	1769	2740
1	1760	2741
1	1736	2742
1	1701	2743
1	1659	2744
1	1611	2745
1	1568	2746
1	1530	2747
1	1503	2748
1	1487	2749
1	1484	2750
1	1500	2751
1	1518	2752
1	1550	2753
1	1594	2754
1	1647	2755
1	1694	2756
1	1738	2757
1	1773	2758
1	1791	2759
1	1829	2780
1	1793	2781
1	1751	2782
1	1697	2783
1	1634	2784
1	1575	2785
1	1525	2786
1	1478	2787
1	1441	2788
1	1421	2789
1	1412	2790
1	1413	2791
1	1435	2792
1	1473	2793
1	1527	2794
1	1594	2795
1	1656	2796
1	1710	2797
1	1749	2798
1	1770	2799
1	1790	2760
1	1764	2761
1	1729	2762
1	1688	2763
1	1643	2764
1	1604	2765
1	1567	2766
1	1536	2767
1	1516	2768
1	1504	2769
1	1508	2770
1	1526	2771
1	1555	2772
1	1594	2773
1	1644	2774
1	1701	2775
1	1747	2776
1	1791	2777
1	1825	2778
1	1837	2779
1	1773	2800
1	1760	2801
1	1727	2802
1	1681	2803
1	1624	2804
1	1561	2805
1	1502	2806
1	1450	2807
1	1412	2808
1	1391	2809
1	1393	2810
1	1399	2811
1	1424	2812
1	1458	2813
1	1503	2814
1	1554	2815
1	1602	2816
1	1642	2817
1	1668	2818
1	1678	2819
1	1672	2820
1	1639	2821
1	1596	2822
1	1549	2823
1	1502	2824
1	1449	2825
1	1407	2826
1	1355	2827
1	1332	2828
1	1323	2829
1	1332	2830
1	1350	2831
1	1395	2832
1	1450	2833
1	1520	2834
1	1596	2835
1	1665	2836
1	1730	2837
1	1775	2838
1	1795	2839
1	1813	2860
1	1791	2861
1	1755	2862
1	1710	2863
1	1649	2864
1	1589	2865
1	1529	2866
1	1476	2867
1	1433	2868
1	1410	2869
1	1407	2870
1	1420	2871
1	1448	2872
1	1486	2873
1	1541	2874
1	1605	2875
1	1664	2876
1	1716	2877
1	1755	2878
1	1779	2879
1	1788	2840
1	1753	2841
1	1703	2842
1	1647	2843
1	1589	2844
1	1529	2845
1	1471	2846
1	1424	2847
1	1391	2848
1	1373	2849
1	1382	2850
1	1409	2851
1	1447	2852
1	1499	2853
1	1561	2854
1	1632	2855
1	1700	2856
1	1754	2857
1	1791	2858
1	1813	2859
1	1858	2900
1	1841	2901
1	1795	2902
1	1747	2903
1	1689	2904
1	1629	2905
1	1579	2906
1	1529	2907
1	1497	2908
1	1476	2909
1	1476	2910
1	1485	2911
1	1512	2912
1	1555	2913
1	1617	2914
1	1689	2915
1	1752	2916
1	1808	2917
1	1844	2918
1	1859	2919
1	1780	2880
1	1762	2881
1	1731	2882
1	1686	2883
1	1636	2884
1	1590	2885
1	1543	2886
1	1499	2887
1	1458	2888
1	1436	2889
1	1431	2890
1	1449	2891
1	1488	2892
1	1543	2893
1	1614	2894
1	1686	2895
1	1743	2896
1	1798	2897
1	1842	2898
1	1857	2899
1	1855	2920
1	1831	2921
1	1769	2922
1	1734	2923
1	1672	2924
1	1607	2925
1	1548	2926
1	1500	2927
1	1462	2928
1	1440	2929
1	1437	2930
1	1451	2931
1	1487	2932
1	1539	2933
1	1607	2934
1	1674	2935
1	1738	2936
1	1792	2937
1	1836	2938
1	1854	2939
1	1854	2940
1	1825	2941
1	1782	2942
1	1734	2943
1	1679	2944
1	1620	2945
1	1581	2946
1	1542	2947
1	1517	2948
1	1514	2949
1	1528	2950
1	1553	2951
1	1584	2952
1	1628	2953
1	1683	2954
1	1744	2955
1	1795	2956
1	1843	2957
1	1869	2958
1	1873	2959
1	1869	2960
1	1837	2961
1	1782	2962
1	1725	2963
1	1665	2964
1	1613	2965
1	1577	2966
1	1543	2967
1	1526	2968
1	1521	2969
1	1533	2970
1	1555	2971
1	1588	2972
1	1628	2973
1	1680	2974
1	1740	2975
1	1791	2976
1	1834	2977
1	1859	2978
1	1869	2979
1	1862	2980
1	1838	2981
1	1791	2982
1	1746	2983
1	1698	2984
1	1647	2985
1	1600	2986
1	1559	2987
1	1529	2988
1	1518	2989
1	1529	2990
1	1554	2991
1	1592	2992
1	1644	2993
1	1704	2994
1	1766	2995
1	1829	2996
1	1873	2997
1	1906	2998
1	1917	2999
1	1906	3000
1	1871	3001
1	1832	3002
1	1783	3003
1	1733	3004
1	1686	3005
1	1639	3006
1	1602	3007
1	1572	3008
1	1555	3009
1	1555	3010
1	1572	3011
1	1605	3012
1	1647	3013
1	1702	3014
1	1764	3015
1	1826	3016
1	1881	3017
1	1922	3018
1	1944	3019
1	1948	3020
1	1922	3021
1	1869	3022
1	1832	3023
1	1778	3024
1	1715	3025
1	1660	3026
1	1606	3027
1	1557	3028
1	1530	3029
1	1523	3030
1	1530	3031
1	1564	3032
1	1612	3033
1	1681	3034
1	1754	3035
1	1826	3036
1	1885	3037
1	1922	3038
1	1948	3039
1	1946	3040
1	1926	3041
1	1891	3042
1	1843	3043
1	1783	3044
1	1724	3045
1	1667	3046
1	1616	3047
1	1581	3048
1	1557	3049
1	1556	3050
1	1577	3051
1	1607	3052
1	1651	3053
1	1706	3054
1	1772	3055
1	1843	3056
1	1900	3057
1	1945	3058
1	1965	3059
1	1962	3060
1	1934	3061
1	1895	3062
1	1850	3063
1	1793	3064
1	1750	3065
1	1707	3066
1	1670	3067
1	1642	3068
1	1629	3069
1	1629	3070
1	1638	3071
1	1660	3072
1	1696	3073
1	1744	3074
1	1809	3075
1	1862	3076
1	1913	3077
1	1947	3078
1	1958	3079
1	1953	3080
1	1931	3081
1	1895	3082
1	1852	3083
1	1798	3084
1	1748	3085
1	1703	3086
1	1661	3087
1	1634	3088
1	1614	3089
1	1616	3090
1	1631	3091
1	1660	3092
1	1700	3093
1	1756	3094
1	1832	3095
1	1891	3096
1	1945	3097
1	1985	3098
1	2007	3099
1	2011	3100
1	1994	3101
1	1960	3102
1	1913	3103
1	1859	3104
1	1798	3105
1	1740	3106
1	1690	3107
1	1647	3108
1	1625	3109
1	1625	3110
1	1637	3111
1	1669	3112
1	1716	3113
1	1780	3114
1	1855	3115
1	1922	3116
1	1980	3117
1	2016	3118
1	2032	3119
1	2021	3140
1	2000	3141
1	1965	3142
1	1919	3143
1	1871	3144
1	1802	3145
1	1744	3146
1	1697	3147
1	1661	3148
1	1647	3149
1	1649	3150
1	1667	3151
1	1704	3152
1	1754	3153
1	1822	3154
1	1895	3155
1	1965	3156
1	2014	3157
1	2050	3158
1	2064	3159
1	2029	3120
1	2000	3121
1	1955	3122
1	1908	3123
1	1854	3124
1	1793	3125
1	1751	3126
1	1697	3127
1	1670	3128
1	1655	3129
1	1657	3130
1	1670	3131
1	1699	3132
1	1738	3133
1	1788	3134
1	1851	3135
1	1908	3136
1	1962	3137
1	2002	3138
1	2021	3139
1	2078	3180
1	2048	3181
1	2004	3182
1	1958	3183
1	1901	3184
1	1850	3185
1	1795	3186
1	1751	3187
1	1718	3188
1	1707	3189
1	1710	3190
1	1728	3191
1	1764	3192
1	1816	3193
1	1870	3194
1	1935	3195
1	1988	3196
1	2038	3197
1	2075	3198
1	2089	3199
1	2061	3160
1	2043	3161
1	2013	3162
1	1974	3163
1	1921	3164
1	1858	3165
1	1792	3166
1	1743	3167
1	1711	3168
1	1694	3169
1	1704	3170
1	1726	3171
1	1762	3172
1	1811	3173
1	1867	3174
1	1925	3175
1	1985	3176
1	2034	3177
1	2070	3178
1	2083	3179
1	2093	3200
1	2075	3201
1	2039	3202
1	1996	3203
1	1944	3204
1	1887	3205
1	1837	3206
1	1791	3207
1	1762	3208
1	1751	3209
1	1756	3210
1	1769	3211
1	1808	3212
1	1849	3213
1	1899	3214
1	1963	3215
1	2021	3216
1	2068	3217
1	2105	3218
1	2129	3219
1	2131	3220
1	2120	3221
1	2078	3222
1	2045	3223
1	1998	3224
1	1944	3225
1	1895	3226
1	1854	3227
1	1814	3228
1	1785	3229
1	1769	3230
1	1769	3231
1	1791	3232
1	1823	3233
1	1875	3234
1	1929	3235
1	1985	3236
1	2036	3237
1	2075	3238
1	2093	3239
1	2094	3240
1	2070	3241
1	2040	3242
1	2003	3243
1	1958	3244
1	1904	3245
1	1859	3246
1	1814	3247
1	1770	3248
1	1751	3249
1	1751	3250
1	1765	3251
1	1803	3252
1	1844	3253
1	1895	3254
1	1942	3255
1	1975	3256
1	2009	3257
1	2027	3258
1	2036	3259
1	2034	3260
1	2016	3261
1	1989	3262
1	1961	3263
1	1927	3264
1	1890	3265
1	1856	3266
1	1823	3267
1	1796	3268
1	1783	3269
1	1783	3270
1	1791	3271
1	1819	3272
1	1858	3273
1	1906	3274
1	1965	3275
1	2021	3276
1	2064	3277
1	2093	3278
1	2105	3279
1	2095	3280
1	2071	3281
1	2039	3282
1	1996	3283
1	1945	3284
1	1891	3285
1	1843	3286
1	1811	3287
1	1787	3288
1	1778	3289
1	1790	3290
1	1814	3291
1	1843	3292
1	1882	3293
1	1927	3294
1	1975	3295
1	2023	3296
1	2060	3297
1	2084	3298
1	2097	3299
1	2088	3300
1	2060	3301
1	2021	3302
1	1975	3303
1	1927	3304
1	1888	3305
1	1845	3306
1	1801	3307
1	1772	3308
1	1764	3309
1	1768	3310
1	1783	3311
1	1817	3312
1	1856	3313
1	1908	3314
1	1966	3315
1	2012	3316
1	2052	3317
1	2079	3318
1	2088	3319
1	2090	3320
1	2073	3321
1	2028	3322
1	2000	3323
1	1953	3324
1	1890	3325
1	1842	3326
1	1800	3327
1	1773	3328
1	1759	3329
1	1764	3330
1	1789	3331
1	1836	3332
1	1895	3333
1	1972	3334
1	2052	3335
1	2135	3336
1	2214	3337
1	2290	3338
1	2355	3339
1	2393	3340
1	2410	3341
1	2405	3342
1	2386	3343
1	2358	3344
1	2330	3345
1	2301	3346
1	2284	3347
1	2279	3348
1	2288	3349
1	2316	3350
1	2372	3351
1	2435	3352
1	2501	3353
1	2568	3354
1	2644	3355
1	2716	3356
1	2777	3357
1	2820	3358
1	2844	3359
1	2842	3360
1	2819	3361
1	2767	3362
1	2698	3363
1	2612	3364
1	2524	3365
1	2426	3366
1	2317	3367
1	2218	3368
1	2139	3369
1	2079	3370
1	2037	3371
1	2016	3372
1	2012	3373
1	2025	3374
1	2051	3375
1	2075	3376
1	2105	3377
1	2120	3378
1	2129	3379
1	2127	3380
1	2102	3381
1	2064	3382
1	2014	3383
1	1961	3384
1	1906	3385
1	1862	3386
1	1824	3387
1	1791	3388
1	1773	3389
1	1777	3390
1	1794	3391
1	1837	3392
1	1884	3393
1	1946	3394
1	2021	3395
1	2083	3396
1	2133	3397
1	2170	3398
1	2188	3399
1	2186	3400
1	2167	3401
1	2131	3402
1	2084	3403
1	2030	3404
1	1971	3405
1	1907	3406
1	1855	3407
1	1815	3408
1	1783	3409
1	1775	3410
1	1790	3411
1	1818	3412
1	1868	3413
1	1932	3414
1	2004	3415
1	2076	3416
1	2132	3417
1	2173	3418
1	2192	3419
1	2192	3420
1	2165	3421
1	2129	3422
1	2082	3423
1	2029	3424
1	1973	3425
1	1930	3426
1	1881	3427
1	1858	3428
1	1842	3429
1	1840	3430
1	1846	3431
1	1871	3432
1	1913	3433
1	1968	3434
1	2026	3435
1	2084	3436
1	2135	3437
1	2170	3438
1	2184	3439
1	2179	3440
1	2157	3441
1	2112	3442
1	2066	3443
1	2004	3444
1	1948	3445
1	1897	3446
1	1856	3447
1	1825	3448
1	1803	3449
1	1808	3450
1	1821	3451
1	1856	3452
1	1903	3453
1	1961	3454
1	2035	3455
1	2097	3456
1	2152	3457
1	2188	3458
1	2210	3459
1	2181	3480
1	2176	3481
1	2157	3482
1	2129	3483
1	2084	3484
1	2043	3485
1	2000	3486
1	1963	3487
1	1934	3488
1	1917	3489
1	1913	3490
1	1922	3491
1	1948	3492
1	1989	3493
1	2042	3494
1	2103	3495
1	2156	3496
1	2205	3497
1	2245	3498
1	2266	3499
1	2208	3460
1	2188	3461
1	2158	3462
1	2118	3463
1	2066	3464
1	2011	3465
1	1950	3466
1	1899	3467
1	1856	3468
1	1824	3469
1	1817	3470
1	1814	3471
1	1826	3472
1	1851	3473
1	1897	3474
1	1961	3475
1	2029	3476
1	2093	3477
1	2144	3478
1	2174	3479
1	2267	3500
1	2260	3501
1	2219	3502
1	2176	3503
1	2129	3504
1	2079	3505
1	2039	3506
1	2007	3507
1	1983	3508
1	1973	3509
1	1972	3510
1	1976	3511
1	1999	3512
1	2026	3513
1	2065	3514
1	2119	3515
1	2171	3516
1	2218	3517
1	2253	3518
1	2264	3519
1	2260	3520
1	2236	3521
1	2210	3522
1	2165	3523
1	2112	3524
1	2052	3525
1	1999	3526
1	1950	3527
1	1921	3528
1	1908	3529
1	1917	3530
1	1947	3531
1	1989	3532
1	2040	3533
1	2104	3534
1	2162	3535
1	2215	3536
1	2262	3537
1	2284	3538
1	2286	3539
1	2273	3540
1	2240	3541
1	2202	3542
1	2166	3543
1	2128	3544
1	2084	3545
1	2052	3546
1	2019	3547
1	1997	3548
1	1988	3549
1	1996	3550
1	2015	3551
1	2048	3552
1	2093	3553
1	2150	3554
1	2213	3555
1	2271	3556
1	2318	3557
1	2352	3558
1	2366	3559
1	2367	3560
1	2344	3561
1	2307	3562
1	2261	3563
1	2201	3564
1	2139	3565
1	2089	3566
1	2048	3567
1	2017	3568
1	2005	3569
1	2011	3570
1	2018	3571
1	2048	3572
1	2087	3573
1	2137	3574
1	2201	3575
1	2260	3576
1	2306	3577
1	2336	3578
1	2349	3579
1	2335	3580
1	2309	3581
1	2272	3582
1	2231	3583
1	2179	3584
1	2124	3585
1	2076	3586
1	2037	3587
1	2004	3588
1	1988	3589
1	1994	3590
1	2008	3591
1	2041	3592
1	2080	3593
1	2132	3594
1	2193	3595
1	2249	3596
1	2296	3597
1	2333	3598
1	2354	3599
1	2354	3600
1	2327	3601
1	2291	3602
1	2247	3603
1	2189	3604
1	2136	3605
1	2100	3606
1	2060	3607
1	2027	3608
1	2012	3609
1	2013	3610
1	2030	3611
1	2061	3612
1	2106	3613
1	2157	3614
1	2219	3615
1	2271	3616
1	2314	3617
1	2339	3618
1	2342	3619
1	2338	3620
1	2305	3621
1	2260	3622
1	2197	3623
1	2147	3624
1	2079	3625
1	2025	3626
1	1973	3627
1	1930	3628
1	1907	3629
1	1897	3630
1	1905	3631
1	1922	3632
1	1953	3633
1	1998	3634
1	2043	3635
1	2096	3636
1	2143	3637
1	2176	3638
1	2204	3639
1	2206	3640
1	2188	3641
1	2157	3642
1	2117	3643
1	2069	3644
1	2016	3645
1	1957	3646
1	1908	3647
1	1868	3648
1	1845	3649
1	1850	3650
1	1869	3651
1	1898	3652
1	1934	3653
1	1978	3654
1	2038	3655
1	2094	3656
1	2148	3657
1	2188	3658
1	2212	3659
1	2219	3660
1	2197	3661
1	2161	3662
1	2115	3663
1	2061	3664
1	2012	3665
1	1961	3666
1	1922	3667
1	1885	3668
1	1868	3669
1	1865	3670
1	1872	3671
1	1898	3672
1	1937	3673
1	1986	3674
1	2044	3675
1	2089	3676
1	2135	3677
1	2161	3678
1	2170	3679
1	2166	3680
1	2142	3681
1	2105	3682
1	2061	3683
1	2013	3684
1	1967	3685
1	1922	3686
1	1883	3687
1	1853	3688
1	1832	3689
1	1826	3690
1	1829	3691
1	1854	3692
1	1894	3693
1	1943	3694
1	2004	3695
1	2063	3696
1	2117	3697
1	2157	3698
1	2177	3699
1	2178	3700
1	2160	3701
1	2131	3702
1	2093	3703
1	2048	3704
1	1998	3705
1	1948	3706
1	1914	3707
1	1890	3708
1	1880	3709
1	1890	3710
1	1916	3711
1	1947	3712
1	1986	3713
1	2038	3714
1	2098	3715
1	2154	3716
1	2199	3717
1	2232	3718
1	2241	3719
1	2236	3740
1	2222	3741
1	2192	3742
1	2160	3743
1	2114	3744
1	2058	3745
1	2009	3746
1	1962	3747
1	1923	3748
1	1898	3749
1	1886	3750
1	1881	3751
1	1897	3752
1	1931	3753
1	1977	3754
1	2045	3755
1	2106	3756
1	2163	3757
1	2209	3758
1	2237	3759
1	2231	3720
1	2194	3721
1	2153	3722
1	2102	3723
1	2045	3724
1	1985	3725
1	1945	3726
1	1895	3727
1	1864	3728
1	1843	3729
1	1837	3730
1	1850	3731
1	1881	3732
1	1929	3733
1	1991	3734
1	2058	3735
1	2119	3736
1	2173	3737
1	2212	3738
1	2236	3739
1	2246	3760
1	2236	3761
1	2209	3762
1	2168	3763
1	2122	3764
1	2067	3765
1	2013	3766
1	1971	3767
1	1938	3768
1	1916	3769
1	1920	3770
1	1931	3771
1	1959	3772
1	1995	3773
1	2043	3774
1	2099	3775
1	2156	3776
1	2209	3777
1	2253	3778
1	2274	3779
1	2273	3780
1	2258	3781
1	2217	3782
1	2173	3783
1	2123	3784
1	2078	3785
1	2032	3786
1	1998	3787
1	1966	3788
1	1948	3789
1	1945	3790
1	1953	3791
1	1975	3792
1	2013	3793
1	2060	3794
1	2116	3795
1	2166	3796
1	2215	3797
1	2262	3798
1	2286	3799
1	2287	3800
1	2276	3801
1	2241	3802
1	2192	3803
1	2137	3804
1	2079	3805
1	2024	3806
1	1973	3807
1	1931	3808
1	1908	3809
1	1907	3810
1	1917	3811
1	1949	3812
1	1997	3813
1	2052	3814
1	2122	3815
1	2182	3816
1	2236	3817
1	2271	3818
1	2288	3819
1	2287	3820
1	2273	3821
1	2244	3822
1	2197	3823
1	2152	3824
1	2102	3825
1	2058	3826
1	2019	3827
1	1987	3828
1	1963	3829
1	1955	3830
1	1972	3831
1	1998	3832
1	2030	3833
1	2083	3834
1	2137	3835
1	2185	3836
1	2233	3837
1	2262	3838
1	2274	3839
1	2269	3840
1	2237	3841
1	2202	3842
1	2163	3843
1	2122	3844
1	2087	3845
1	2052	3846
1	2021	3847
1	1998	3848
1	1985	3849
1	1986	3850
1	1995	3851
1	2013	3852
1	2040	3853
1	2080	3854
1	2131	3855
1	2171	3856
1	2213	3857
1	2250	3858
1	2265	3859
1	2273	3860
1	2257	3861
1	2222	3862
1	2183	3863
1	2133	3864
1	2078	3865
1	2028	3866
1	1989	3867
1	1963	3868
1	1952	3869
1	1958	3870
1	1965	3871
1	1993	3872
1	2027	3873
1	2073	3874
1	2125	3875
1	2170	3876
1	2209	3877
1	2237	3878
1	2243	3879
1	2222	3880
1	2205	3881
1	2183	3882
1	2157	3883
1	2124	3884
1	2082	3885
1	2042	3886
1	2007	3887
1	1975	3888
1	1953	3889
1	1951	3890
1	1957	3891
1	1979	3892
1	2019	3893
1	2075	3894
1	2139	3895
1	2207	3896
1	2271	3897
1	2317	3898
1	2343	3899
1	2345	3900
1	2314	3901
1	2275	3902
1	2218	3903
1	2155	3904
1	2084	3905
1	2032	3906
1	1983	3907
1	1946	3908
1	1922	3909
1	1917	3910
1	1931	3911
1	1961	3912
1	2007	3913
1	2065	3914
1	2131	3915
1	2188	3916
1	2250	3917
1	2288	3918
1	2300	3919
1	2288	3920
1	2270	3921
1	2222	3922
1	2170	3923
1	2123	3924
1	2066	3925
1	2012	3926
1	1974	3927
1	1948	3928
1	1934	3929
1	1935	3930
1	1948	3931
1	1974	3932
1	2011	3933
1	2052	3934
1	2095	3935
1	2156	3936
1	2207	3937
1	2251	3938
1	2283	3939
1	2287	3940
1	2275	3941
1	2243	3942
1	2197	3943
1	2146	3944
1	2092	3945
1	2037	3946
1	1994	3947
1	1958	3948
1	1937	3949
1	1938	3950
1	1948	3951
1	1971	3952
1	2013	3953
1	2066	3954
1	2135	3955
1	2205	3956
1	2263	3957
1	2298	3958
1	2307	3959
1	2294	3960
1	2263	3961
1	2222	3962
1	2174	3963
1	2122	3964
1	2079	3965
1	2034	3966
1	1994	3967
1	1965	3968
1	1949	3969
1	1952	3970
1	1973	3971
1	2003	3972
1	2042	3973
1	2087	3974
1	2137	3975
1	2174	3976
1	2212	3977
1	2248	3978
1	2262	3979
1	2270	3980
1	2254	3981
1	2219	3982
1	2176	3983
1	2125	3984
1	2071	3985
1	2025	3986
1	1983	3987
1	1948	3988
1	1932	3989
1	1931	3990
1	1940	3991
1	1970	3992
1	2018	3993
1	2083	3994
1	2161	3995
1	2232	3996
1	2288	3997
1	2335	3998
1	2353	3999
1	2351	4000
1	2326	4001
1	2284	4002
1	2230	4003
1	2169	4004
1	2106	4005
1	2048	4006
1	2003	4006
1	1967	4008
1	1947	4009
1	1948	4010
1	1971	4011
1	2005	4012
1	2051	4013
1	2100	4014
1	2156	4014
1	2210	4016
1	2262	4017
1	2294	4018
1	2311	4019
1	2341	4080
1	2318	4081
1	2287	4082
1	2240	4083
1	2183	4084
1	2128	4085
1	2075	4086
1	2026	4086
1	1988	4088
1	1966	4089
1	1960	4090
1	1973	4091
1	2005	4092
1	2048	4093
1	2099	4094
1	2154	4094
1	2199	4096
1	2250	4097
1	2281	4098
1	2304	4099
1	2327	4060
1	2305	4061
1	2267	4062
1	2232	4062
1	2183	4064
1	2131	4065
1	2081	4066
1	2045	4067
1	2007	4068
1	1983	4069
1	1974	4070
1	1974	4070
1	2000	4072
1	2043	4073
1	2099	4074
1	2170	4075
1	2236	4076
1	2292	4077
1	2338	4078
1	2366	4078
1	2305	4020
1	2275	4021
1	2233	4022
1	2183	4022
1	2131	4024
1	2075	4025
1	2029	4026
1	1983	4027
1	1958	4028
1	1940	4029
1	1947	4030
1	1965	4030
1	2000	4032
1	2050	4033
1	2105	4034
1	2166	4035
1	2217	4036
1	2273	4037
1	2312	4038
1	2330	4038
1	2367	4060
1	2345	4061
1	2307	4062
1	2258	4062
1	2196	4064
1	2133	4065
1	2070	4066
1	2025	4067
1	1985	4068
1	1960	4069
1	1960	4070
1	1973	4070
1	2003	4072
1	2048	4073
1	2104	4074
1	2170	4075
1	2236	4076
1	2288	4077
1	2324	4078
1	2341	4078
1	2311	4100
1	2288	4101
1	2250	4102
1	2197	4103
1	2132	4104
1	2063	4105
1	2000	4106
1	1944	4107
1	1904	4108
1	1882	4109
1	1884	4110
1	1895	4111
1	1928	4112
1	1974	4113
1	2026	4114
1	2094	4115
1	2157	4116
1	2210	4117
1	2258	4118
1	2280	4119
1	2283	4120
1	2269	4121
1	2237	4122
1	2186	4123
1	2142	4124
1	2088	4125
1	2043	4126
1	1992	4127
1	1949	4128
1	1923	4129
1	1913	4130
1	1917	4131
1	1939	4132
1	1974	4133
1	2032	4134
1	2089	4135
1	2148	4136
1	2196	4137
1	2234	4138
1	2251	4139
1	2248	4140
1	2218	4141
1	2186	4142
1	2156	4143
1	2114	4144
1	2071	4145
1	2026	4146
1	1983	4147
1	1942	4148
1	1911	4149
1	1898	4150
1	1906	4151
1	1931	4152
1	1974	4153
1	2029	4154
1	2093	4155
1	2144	4156
1	2194	4157
1	2233	4158
1	2250	4159
1	2201	4180
1	2174	4181
1	2139	4182
1	2097	4183
1	2052	4184
1	2009	4185
1	1965	4186
1	1934	4187
1	1916	4188
1	1922	4189
1	1953	4190
1	1999	4191
1	2058	4192
1	2129	4193
1	2210	4194
1	2301	4195
1	2388	4196
1	2463	4197
1	2515	4198
1	2555	4199
1	2257	4160
1	2236	4161
1	2197	4162
1	2155	4163
1	2104	4164
1	2050	4165
1	2005	4166
1	1968	4167
1	1935	4168
1	1914	4169
1	1908	4170
1	1909	4171
1	1931	4172
1	1962	4173
1	2011	4174
1	2070	4175
1	2124	4176
1	2170	4177
1	2199	4178
1	2201	4179
1	2577	4200
1	2579	4201
1	2573	4202
1	2568	4203
1	2558	4204
1	2544	4205
1	2543	4206
1	2539	4207
1	2538	4208
1	2550	4209
1	2568	4210
1	2595	4211
1	2634	4212
1	2683	4213
1	2740	4214
1	2801	4215
1	2854	4216
1	2892	4217
1	2899	4218
1	2876	4219
1	2818	4220
1	2727	4221
1	2624	4222
1	2513	4223
1	2394	4224
1	2264	4225
1	2152	4226
1	2054	4227
1	1976	4228
1	1924	4229
1	1896	4230
1	1891	4231
1	1900	4232
1	1922	4233
1	1955	4234
1	2003	4235
1	2052	4236
1	2095	4237
1	2132	4238
1	2163	4239
1	2169	4240
1	2156	4241
1	2126	4242
1	2090	4243
1	2050	4244
1	2004	4245
1	1953	4246
1	1908	4247
1	1868	4248
1	1838	4249
1	1832	4250
1	1840	4251
1	1857	4252
1	1890	4253
1	1933	4254
1	1986	4255
1	2038	4256
1	2084	4257
1	2126	4258
1	2148	4259
1	2131	4280
1	2114	4281
1	2081	4282
1	2045	4283
1	1999	4284
1	1946	4285
1	1895	4286
1	1847	4287
1	1811	4288
1	1785	4289
1	1775	4290
1	1775	4291
1	1801	4292
1	1844	4293
1	1893	4294
1	1956	4295
1	2013	4296
1	2061	4297
1	2100	4298
1	2120	4299
1	2149	4260
1	2122	4261
1	2084	4262
1	2035	4263
1	1983	4264
1	1934	4265
1	1885	4266
1	1847	4267
1	1818	4268
1	1808	4269
1	1812	4270
1	1824	4271
1	1848	4272
1	1881	4273
1	1925	4274
1	1980	4275
1	2028	4276
1	2079	4277
1	2115	4278
1	2130	4279
1	2122	4300
1	2109	4301
1	2077	4302
1	2028	4303
1	1974	4304
1	1917	4305
1	1860	4306
1	1815	4307
1	1773	4308
1	1748	4309
1	1744	4310
1	1751	4311
1	1775	4312
1	1817	4313
1	1869	4314
1	1927	4315
1	1991	4316
1	2047	4317
1	2083	4318
1	2104	4319
1	2105	4320
1	2079	4321
1	2048	4322
1	2007	4323
1	1961	4324
1	1907	4325
1	1868	4326
1	1819	4327
1	1788	4328
1	1765	4329
1	1764	4330
1	1775	4331
1	1800	4332
1	1842	4333
1	1888	4334
1	1948	4335
1	1996	4336
1	2040	4337
1	2071	4338
1	2082	4339
1	2075	4340
1	2050	4341
1	2010	4342
1	1971	4343
1	1922	4344
1	1872	4345
1	1826	4346
1	1782	4347
1	1751	4348
1	1737	4349
1	1737	4350
1	1739	4351
1	1762	4352
1	1791	4353
1	1844	4354
1	1908	4355
1	1960	4356
1	2006	4357
1	2040	4358
1	2057	4359
1	2055	4360
1	2039	4361
1	2006	4362
1	1973	4363
1	1933	4364
1	1886	4365
1	1839	4366
1	1791	4367
1	1760	4368
1	1738	4369
1	1738	4370
1	1749	4371
1	1776	4372
1	1818	4373
1	1867	4374
1	1920	4375
1	1970	4376
1	2013	4377
1	2045	4378
1	2052	4379
1	2048	4380
1	2030	4381
1	2000	4382
1	1957	4383
1	1908	4384
1	1865	4385
1	1818	4386
1	1777	4387
1	1745	4388
1	1729	4389
1	1729	4390
1	1746	4391
1	1779	4392
1	1831	4393
1	1885	4394
1	1945	4395
1	1988	4396
1	2027	4397
1	2058	4398
1	2075	4399
1	2070	4400
1	2054	4401
1	2016	4402
1	1971	4403
1	1922	4404
1	1870	4405
1	1830	4406
1	1791	4407
1	1764	4408
1	1751	4409
1	1753	4410
1	1764	4411
1	1796	4412
1	1845	4413
1	1901	4414
1	1973	4415
1	2028	4416
1	2075	4417
1	2105	4418
1	2106	4419
1	2091	4420
1	2060	4421
1	2012	4422
1	1953	4423
1	1895	4424
1	1839	4425
1	1785	4426
1	1743	4427
1	1712	4428
1	1697	4429
1	1698	4430
1	1715	4431
1	1755	4432
1	1816	4433
1	1871	4434
1	1934	4435
1	1989	4436
1	2041	4437
1	2075	4438
1	2093	4439
1	2091	4440
1	2066	4441
1	2030	4442
1	1989	4443
1	1944	4444
1	1901	4445
1	1856	4446
1	1817	4447
1	1782	4448
1	1764	4449
1	1762	4450
1	1769	4451
1	1796	4452
1	1837	4453
1	1881	4454
1	1934	4455
1	1974	4456
1	2019	4457
1	2050	4458
1	2058	4459
1	2055	4460
1	2030	4461
1	1996	4462
1	1951	4463
1	1904	4464
1	1851	4465
1	1796	4466
1	1748	4467
1	1711	4468
1	1686	4469
1	1684	4470
1	1686	4471
1	1705	4472
1	1738	4473
1	1783	4474
1	1849	4475
1	1906	4476
1	1952	4477
1	1985	4478
1	1990	4479
1	1988	4480
1	1961	4481
1	1920	4482
1	1869	4483
1	1817	4484
1	1755	4485
1	1696	4486
1	1645	4487
1	1603	4488
1	1576	4489
1	1568	4490
1	1568	4491
1	1584	4492
1	1617	4493
1	1660	4494
1	1715	4495
1	1769	4496
1	1818	4497
1	1852	4498
1	1868	4499
1	1864	4500
1	1841	4501
1	1803	4502
1	1763	4503
1	1712	4504
1	1660	4505
1	1607	4506
1	1557	4507
1	1521	4508
1	1494	4509
1	1490	4510
1	1503	4511
1	1534	4512
1	1575	4513
1	1622	4514
1	1675	4515
1	1719	4516
1	1764	4517
1	1800	4518
1	1818	4519
1	1817	4520
1	1787	4521
1	1746	4522
1	1695	4523
1	1647	4524
1	1589	4525
1	1541	4526
1	1497	4527
1	1464	4528
1	1448	4529
1	1445	4530
1	1451	4531
1	1475	4532
1	1503	4533
1	1553	4534
1	1607	4535
1	1662	4536
1	1712	4537
1	1744	4538
1	1770	4539
1	1770	4540
1	1760	4541
1	1733	4542
1	1692	4543
1	1638	4544
1	1581	4545
1	1521	4546
1	1474	4547
1	1435	4548
1	1409	4549
1	1406	4550
1	1410	4551
1	1431	4552
1	1464	4553
1	1508	4554
1	1566	4555
1	1625	4556
1	1676	4557
1	1713	4558
1	1736	4559
1	1737	4560
1	1712	4561
1	1682	4562
1	1638	4563
1	1594	4564
1	1555	4565
1	1515	4566
1	1476	4567
1	1447	4568
1	1424	4569
1	1415	4570
1	1418	4571
1	1436	4572
1	1463	4573
1	1505	4574
1	1556	4575
1	1606	4576
1	1650	4577
1	1686	4578
1	1703	4579
1	1705	4580
1	1692	4581
1	1669	4582
1	1643	4583
1	1607	4584
1	1562	4585
1	1520	4586
1	1476	4587
1	1441	4588
1	1422	4589
1	1419	4590
1	1424	4591
1	1450	4592
1	1482	4593
1	1521	4594
1	1574	4595
1	1625	4596
1	1670	4597
1	1705	4598
1	1721	4599
1	1716	4600
1	1692	4601
1	1659	4602
1	1615	4603
1	1569	4604
1	1518	4605
1	1469	4606
1	1427	4607
1	1398	4608
1	1379	4609
1	1384	4610
1	1402	4611
1	1428	4612
1	1457	4613
1	1495	4614
1	1537	4615
1	1585	4616
1	1634	4617
1	1670	4618
1	1687	4619
1	1687	4620
1	1669	4621
1	1638	4622
1	1602	4623
1	1555	4624
1	1503	4625
1	1461	4626
1	1422	4627
1	1398	4628
1	1377	4629
1	1381	4630
1	1399	4631
1	1431	4632
1	1472	4633
1	1517	4634
1	1570	4635
1	1610	4636
1	1652	4637
1	1679	4638
1	1695	4639
1	1693	4640
1	1674	4641
1	1643	4642
1	1605	4643
1	1552	4644
1	1493	4645
1	1438	4646
1	1394	4647
1	1351	4648
1	1332	4649
1	1332	4650
1	1338	4651
1	1369	4652
1	1408	4653
1	1451	4654
1	1510	4655
1	1561	4656
1	1607	4657
1	1644	4658
1	1664	4659
1	1672	4660
1	1660	4661
1	1634	4662
1	1597	4663
1	1550	4664
1	1500	4665
1	1448	4666
1	1399	4667
1	1355	4668
1	1331	4669
1	1328	4670
1	1336	4671
1	1359	4672
1	1397	4673
1	1438	4674
1	1489	4675
1	1539	4676
1	1586	4677
1	1623	4678
1	1646	4679
1	1647	4680
1	1629	4681
1	1594	4682
1	1553	4683
1	1506	4684
1	1464	4685
1	1425	4686
1	1395	4687
1	1364	4688
1	1348	4689
1	1346	4690
1	1356	4691
1	1377	4692
1	1417	4693
1	1465	4694
1	1517	4695
1	1562	4696
1	1605	4697
1	1634	4698
1	1648	4699
1	1654	4700
1	1634	4701
1	1602	4702
1	1559	4703
1	1516	4704
1	1471	4705
1	1429	4706
1	1384	4707
1	1350	4708
1	1325	4709
1	1318	4710
1	1314	4711
1	1332	4712
1	1367	4713
1	1417	4714
1	1474	4715
1	1528	4716
1	1581	4717
1	1620	4718
1	1649	4719
1	1658	4720
1	1646	4721
1	1613	4722
1	1566	4723
1	1515	4724
1	1458	4725
1	1409	4726
1	1366	4727
1	1333	4728
1	1310	4729
1	1306	4730
1	1314	4731
1	1341	4732
1	1374	4733
1	1430	4734
1	1481	4735
1	1531	4736
1	1580	4737
1	1612	4738
1	1625	4739
1	1607	4780
1	1581	4781
1	1545	4782
1	1503	4783
1	1459	4784
1	1412	4785
1	1372	4786
1	1340	4787
1	1319	4788
1	1307	4789
1	1316	4790
1	1331	4791
1	1360	4792
1	1400	4793
1	1448	4794
1	1499	4795
1	1551	4796
1	1593	4797
1	1625	4798
1	1637	4799
1	1618	4740
1	1590	4741
1	1555	4742
1	1509	4743
1	1456	4744
1	1400	4745
1	1343	4746
1	1301	4747
1	1272	4748
1	1267	4749
1	1276	4750
1	1299	4751
1	1341	4752
1	1395	4753
1	1451	4754
1	1516	4755
1	1571	4756
1	1620	4757
1	1656	4758
1	1668	4759
1	1631	4800
1	1600	4801
1	1561	4802
1	1512	4803
1	1454	4804
1	1399	4805
1	1353	4806
1	1318	4807
1	1289	4808
1	1273	4809
1	1273	4810
1	1286	4811
1	1312	4812
1	1346	4813
1	1399	4814
1	1451	4815
1	1503	4816
1	1550	4817
1	1582	4818
1	1604	4819
1	1665	4760
1	1643	4761
1	1600	4762
1	1550	4763
1	1494	4764
1	1440	4765
1	1398	4766
1	1354	4767
1	1324	4768
1	1306	4769
1	1305	4770
1	1310	4771
1	1333	4772
1	1371	4773
1	1424	4774
1	1478	4775
1	1529	4776
1	1574	4777
1	1604	4778
1	1615	4779
1	1610	4820
1	1599	4821
1	1571	4822
1	1530	4823
1	1464	4824
1	1424	4825
1	1373	4826
1	1340	4827
1	1314	4828
1	1294	4829
1	1295	4830
1	1302	4831
1	1319	4832
1	1341	4833
1	1372	4834
1	1416	4835
1	1458	4836
1	1499	4837
1	1530	4838
1	1557	4839
1	1566	4840
1	1559	4841
1	1538	4842
1	1503	4843
1	1469	4844
1	1427	4845
1	1382	4846
1	1345	4847
1	1314	4848
1	1293	4849
1	1293	4850
1	1307	4851
1	1330	4852
1	1359	4853
1	1399	4854
1	1445	4855
1	1490	4856
1	1533	4857
1	1568	4858
1	1592	4859
1	1597	4860
1	1580	4861
1	1555	4862
1	1520	4863
1	1476	4864
1	1437	4865
1	1392	4866
1	1346	4867
1	1305	4868
1	1278	4869
1	1267	4870
1	1273	4871
1	1297	4872
1	1337	4873
1	1395	4874
1	1456	4875
1	1513	4876
1	1564	4877
1	1604	4878
1	1625	4879
1	1634	4880
1	1618	4881
1	1588	4882
1	1548	4883
1	1500	4884
1	1447	4885
1	1398	4886
1	1351	4887
1	1318	4888
1	1289	4889
1	1280	4890
1	1282	4891
1	1302	4892
1	1335	4893
1	1384	4894
1	1450	4895
1	1503	4896
1	1554	4897
1	1587	4898
1	1601	4899
1	1597	4900
1	1579	4901
1	1544	4902
1	1503	4903
1	1458	4904
1	1406	4905
1	1359	4906
1	1323	4907
1	1296	4908
1	1278	4909
1	1286	4910
1	1297	4911
1	1324	4912
1	1363	4913
1	1413	4914
1	1462	4915
1	1508	4916
1	1552	4917
1	1581	4918
1	1600	4919
1	1599	4920
1	1580	4921
1	1545	4922
1	1503	4923
1	1456	4924
1	1405	4925
1	1356	4926
1	1314	4927
1	1273	4928
1	1255	4929
1	1256	4930
1	1264	4931
1	1285	4932
1	1319	4933
1	1361	4934
1	1419	4935
1	1473	4936
1	1526	4937
1	1564	4938
1	1592	4939
1	1595	4940
1	1580	4941
1	1551	4942
1	1519	4943
1	1477	4944
1	1436	4945
1	1396	4946
1	1353	4947
1	1322	4948
1	1307	4949
1	1309	4950
1	1317	4951
1	1339	4952
1	1376	4953
1	1427	4954
1	1490	4955
1	1544	4956
1	1590	4957
1	1625	4958
1	1645	4959
1	1647	4960
1	1634	4961
1	1602	4962
1	1562	4963
1	1512	4964
1	1452	4965
1	1384	4966
1	1328	4967
1	1273	4968
1	1237	4969
1	1224	4970
1	1230	4971
1	1260	4972
1	1302	4973
1	1355	4974
1	1427	4975
1	1500	4976
1	1571	4977
1	1624	4978
1	1647	4979
1	1566	5000
1	1542	5001
1	1500	5002
1	1452	5003
1	1405	5004
1	1353	5005
1	1312	5006
1	1278	5007
1	1251	5008
1	1238	5009
1	1242	5010
1	1253	5011
1	1281	5012
1	1314	5013
1	1356	5014
1	1418	5015
1	1464	5016
1	1503	5017
1	1537	5018
1	1555	5019
1	1645	4980
1	1622	4981
1	1581	4982
1	1529	4983
1	1472	4984
1	1419	4985
1	1360	4986
1	1319	4987
1	1281	4988
1	1258	4989
1	1255	4990
1	1267	4991
1	1293	4992
1	1332	4993
1	1376	4994
1	1435	4995
1	1477	4996
1	1520	4997
1	1553	4998
1	1569	4999
1	1556	5020
1	1544	5021
1	1525	5022
1	1484	5023
1	1443	5024
1	1392	5025
1	1342	5026
1	1301	5027
1	1266	5028
1	1241	5029
1	1238	5030
1	1248	5031
1	1274	5032
1	1309	5033
1	1364	5034
1	1422	5035
1	1476	5036
1	1524	5037
1	1561	5038
1	1582	5039
1	1581	5040
1	1554	5041
1	1511	5042
1	1463	5043
1	1409	5044
1	1357	5045
1	1315	5046
1	1280	5047
1	1256	5048
1	1245	5049
1	1248	5050
1	1266	5051
1	1292	5052
1	1328	5053
1	1374	5054
1	1435	5055
1	1482	5056
1	1529	5057
1	1566	5058
1	1584	5059
1	1764	5080
1	1777	5081
1	1770	5082
1	1755	5083
1	1736	5084
1	1711	5085
1	1684	5086
1	1664	5087
1	1660	5088
1	1669	5089
1	1699	5090
1	1736	5091
1	1791	5092
1	1868	5093
1	1953	5094
1	2048	5095
1	2137	5096
1	2215	5097
1	2286	5098
1	2329	5099
1	2345	5100
1	2330	5101
1	2297	5102
1	2249	5103
1	2179	5104
1	2103	5105
1	2012	5106
1	1913	5107
1	1814	5108
1	1715	5109
1	1638	5110
1	1580	5111
1	1537	5112
1	1514	5113
1	1511	5114
1	1524	5115
1	1533	5116
1	1548	5117
1	1555	5118
1	1555	5119
1	1585	5060
1	1561	5061
1	1521	5062
1	1468	5063
1	1409	5064
1	1341	5065
1	1285	5066
1	1240	5067
1	1206	5068
1	1188	5069
1	1193	5070
1	1215	5071
1	1251	5072
1	1304	5073
1	1372	5074
1	1463	5075
1	1551	5076
1	1631	5077
1	1700	5078
1	1746	5079
1	1548	5120
1	1524	5121
1	1489	5122
1	1445	5123
1	1397	5124
1	1333	5125
1	1280	5126
1	1235	5127
1	1204	5128
1	1188	5129
1	1188	5130
1	1212	5131
1	1252	5132
1	1302	5133
1	1359	5134
1	1418	5135
1	1469	5136
1	1511	5137
1	1541	5138
1	1562	5139
1	1560	5140
1	1544	5141
1	1515	5142
1	1479	5143
1	1442	5144
1	1398	5145
1	1344	5146
1	1298	5147
1	1262	5148
1	1233	5149
1	1228	5150
1	1230	5151
1	1253	5152
1	1287	5153
1	1331	5154
1	1377	5155
1	1435	5156
1	1481	5157
1	1523	5158
1	1553	5159
1	1559	5180
1	1544	5181
1	1517	5182
1	1487	5183
1	1449	5184
1	1409	5185
1	1365	5186
1	1330	5187
1	1297	5188
1	1281	5189
1	1280	5190
1	1282	5191
1	1305	5192
1	1341	5193
1	1392	5194
1	1453	5195
1	1508	5196
1	1555	5197
1	1587	5198
1	1600	5199
1	1564	5160
1	1555	5161
1	1529	5162
1	1495	5163
1	1454	5164
1	1417	5165
1	1371	5166
1	1330	5167
1	1296	5168
1	1271	5169
1	1267	5170
1	1278	5171
1	1301	5172
1	1335	5173
1	1377	5174
1	1428	5175
1	1472	5176
1	1512	5177
1	1545	5178
1	1559	5179
1	1596	5200
1	1579	5201
1	1539	5202
1	1494	5203
1	1445	5204
1	1394	5205
1	1337	5206
1	1301	5207
1	1272	5208
1	1258	5209
1	1266	5210
1	1280	5211
1	1305	5212
1	1341	5213
1	1384	5214
1	1442	5215
1	1494	5216
1	1542	5217
1	1581	5218
1	1607	5219
1	1575	5240
1	1568	5241
1	1553	5242
1	1527	5243
1	1490	5244
1	1448	5245
1	1410	5246
1	1372	5247
1	1341	5248
1	1323	5249
1	1320	5250
1	1325	5251
1	1350	5252
1	1379	5253
1	1422	5254
1	1476	5255
1	1519	5256
1	1557	5257
1	1589	5258
1	1609	5259
1	1609	5220
1	1592	5221
1	1556	5222
1	1516	5223
1	1468	5224
1	1422	5225
1	1376	5226
1	1335	5227
1	1315	5228
1	1298	5229
1	1297	5230
1	1310	5231
1	1332	5232
1	1359	5233
1	1400	5234
1	1448	5235
1	1484	5236
1	1521	5237
1	1548	5238
1	1566	5239
1	1729	5280
1	1708	5281
1	1668	5282
1	1620	5283
1	1561	5284
1	1504	5285
1	1450	5286
1	1405	5287
1	1372	5288
1	1353	5289
1	1357	5290
1	1372	5291
1	1408	5292
1	1452	5293
1	1512	5294
1	1581	5295
1	1638	5296
1	1697	5297
1	1739	5298
1	1762	5299
1	1612	5260
1	1607	5261
1	1587	5262
1	1557	5263
1	1529	5264
1	1489	5265
1	1447	5266
1	1413	5267
1	1378	5268
1	1358	5269
1	1359	5270
1	1361	5271
1	1384	5272
1	1424	5273
1	1468	5274
1	1529	5275
1	1595	5276
1	1660	5277
1	1710	5278
1	1736	5279
1	1772	5300
1	1755	5301
1	1719	5302
1	1674	5303
1	1620	5304
1	1563	5305
1	1508	5306
1	1459	5307
1	1419	5308
1	1384	5309
1	1373	5310
1	1376	5311
1	1405	5312
1	1449	5313
1	1503	5314
1	1571	5315
1	1635	5316
1	1694	5317
1	1741	5318
1	1767	5319
1	1774	5320
1	1761	5321
1	1731	5322
1	1683	5323
1	1632	5324
1	1573	5325
1	1512	5326
1	1463	5327
1	1424	5328
1	1407	5329
1	1408	5330
1	1421	5331
1	1449	5332
1	1489	5333
1	1543	5334
1	1599	5335
1	1659	5336
1	1710	5337
1	1749	5338
1	1767	5339
1	1765	5340
1	1744	5341
1	1710	5342
1	1665	5343
1	1619	5344
1	1571	5345
1	1521	5346
1	1476	5347
1	1438	5348
1	1409	5349
1	1398	5350
1	1406	5351
1	1431	5352
1	1469	5353
1	1514	5354
1	1564	5355
1	1607	5356
1	1647	5357
1	1675	5358
1	1689	5359
1	1690	5360
1	1670	5361
1	1644	5362
1	1612	5363
1	1576	5364
1	1529	5365
1	1485	5366
1	1445	5367
1	1411	5368
1	1383	5369
1	1372	5370
1	1368	5371
1	1379	5372
1	1404	5373
1	1437	5374
1	1485	5375
1	1535	5376
1	1581	5377
1	1611	5378
1	1631	5379
1	1623	5380
1	1600	5381
1	1560	5382
1	1517	5383
1	1471	5384
1	1422	5385
1	1372	5386
1	1337	5387
1	1310	5388
1	1287	5389
1	1281	5390
1	1283	5391
1	1301	5392
1	1330	5393
1	1369	5394
1	1420	5395
1	1467	5396
1	1517	5397
1	1557	5398
1	1584	5399
1	1592	5400
1	1572	5401
1	1539	5402
1	1494	5403
1	1441	5404
1	1393	5405
1	1338	5406
1	1296	5407
1	1259	5408
1	1237	5409
1	1228	5410
1	1232	5411
1	1249	5412
1	1277	5413
1	1315	5414
1	1364	5415
1	1420	5416
1	1468	5417
1	1508	5418
1	1531	5419
1	1541	5420
1	1518	5421
1	1482	5422
1	1437	5423
1	1377	5424
1	1323	5425
1	1269	5426
1	1232	5427
1	1211	5428
1	1199	5429
1	1206	5430
1	1224	5431
1	1252	5432
1	1286	5433
1	1330	5434
1	1384	5435
1	1440	5436
1	1487	5437
1	1521	5438
1	1552	5439
1	1556	5440
1	1545	5441
1	1518	5442
1	1478	5443
1	1430	5444
1	1368	5445
1	1305	5446
1	1261	5447
1	1222	5448
1	1199	5449
1	1197	5450
1	1204	5451
1	1228	5452
1	1262	5453
1	1312	5454
1	1373	5455
1	1443	5456
1	1498	5457
1	1537	5458
1	1557	5459
1	1561	5460
1	1542	5461
1	1510	5462
1	1465	5463
1	1415	5464
1	1366	5465
1	1320	5466
1	1284	5467
1	1260	5468
1	1242	5469
1	1245	5470
1	1258	5471
1	1280	5472
1	1310	5473
1	1346	5474
1	1397	5475
1	1437	5476
1	1481	5477
1	1520	5478
1	1540	5479
1	1567	5500
1	1548	5501
1	1518	5502
1	1478	5503
1	1438	5504
1	1398	5505
1	1351	5506
1	1319	5507
1	1292	5508
1	1269	5509
1	1275	5510
1	1286	5511
1	1307	5512
1	1341	5513
1	1381	5514
1	1431	5515
1	1479	5516
1	1524	5517
1	1554	5518
1	1569	5519
1	1543	5480
1	1527	5481
1	1490	5482
1	1445	5483
1	1395	5484
1	1335	5485
1	1283	5486
1	1241	5487
1	1214	5488
1	1197	5489
1	1201	5490
1	1215	5491
1	1251	5492
1	1294	5493
1	1345	5494
1	1415	5495
1	1471	5496
1	1520	5497
1	1555	5498
1	1570	5499
1	1569	5520
1	1551	5521
1	1516	5522
1	1474	5523
1	1423	5524
1	1364	5525
1	1319	5526
1	1273	5527
1	1246	5528
1	1233	5529
1	1233	5530
1	1249	5531
1	1280	5532
1	1318	5533
1	1361	5534
1	1423	5535
1	1477	5536
1	1534	5537
1	1580	5538
1	1600	5539
1	1607	5540
1	1590	5541
1	1554	5542
1	1516	5543
1	1466	5544
1	1412	5545
1	1356	5546
1	1315	5547
1	1278	5548
1	1254	5549
1	1246	5550
1	1250	5551
1	1268	5552
1	1302	5553
1	1346	5554
1	1406	5555
1	1456	5556
1	1503	5557
1	1538	5558
1	1556	5559
1	1559	5560
1	1548	5561
1	1521	5562
1	1481	5563
1	1437	5564
1	1384	5565
1	1334	5566
1	1295	5567
1	1265	5568
1	1241	5569
1	1242	5570
1	1251	5571
1	1273	5572
1	1306	5573
1	1348	5574
1	1409	5575
1	1462	5576
1	1507	5577
1	1544	5578
1	1557	5579
1	1553	5580
1	1539	5581
1	1511	5582
1	1476	5583
1	1435	5584
1	1398	5585
1	1357	5586
1	1325	5587
1	1302	5588
1	1288	5589
1	1286	5590
1	1296	5591
1	1321	5592
1	1357	5593
1	1403	5594
1	1454	5595
1	1503	5596
1	1546	5597
1	1575	5598
1	1581	5599
1	1581	5600
1	1553	5601
1	1513	5602
1	1469	5603
1	1424	5604
1	1374	5605
1	1334	5606
1	1301	5607
1	1279	5608
1	1268	5609
1	1271	5610
1	1283	5611
1	1317	5612
1	1356	5613
1	1402	5614
1	1458	5615
1	1508	5616
1	1547	5617
1	1571	5618
1	1582	5619
1	1575	5620
1	1552	5621
1	1518	5622
1	1472	5623
1	1425	5624
1	1373	5625
1	1332	5626
1	1296	5627
1	1268	5628
1	1251	5629
1	1250	5630
1	1255	5631
1	1268	5632
1	1293	5633
1	1331	5634
1	1372	5635
1	1425	5636
1	1476	5637
1	1520	5638
1	1551	5639
1	1555	5640
1	1542	5641
1	1508	5642
1	1471	5643
1	1424	5644
1	1377	5645
1	1332	5646
1	1291	5647
1	1258	5648
1	1238	5649
1	1234	5650
1	1247	5651
1	1281	5652
1	1325	5653
1	1384	5654
1	1456	5655
1	1524	5656
1	1584	5657
1	1633	5658
1	1652	5659
1	1600	5680
1	1595	5681
1	1577	5682
1	1541	5683
1	1495	5684
1	1449	5685
1	1396	5686
1	1346	5687
1	1309	5688
1	1283	5689
1	1281	5690
1	1288	5691
1	1305	5692
1	1333	5693
1	1377	5694
1	1437	5695
1	1490	5696
1	1534	5697
1	1566	5698
1	1583	5699
1	1665	5660
1	1647	5661
1	1609	5662
1	1557	5663
1	1502	5664
1	1432	5665
1	1362	5666
1	1309	5667
1	1269	5668
1	1250	5669
1	1242	5670
1	1242	5671
1	1266	5672
1	1294	5673
1	1335	5674
1	1401	5675
1	1464	5676
1	1521	5677
1	1568	5678
1	1595	5679
1	1590	5700
1	1577	5701
1	1554	5702
1	1524	5703
1	1484	5704
1	1452	5705
1	1415	5706
1	1372	5707
1	1333	5708
1	1305	5709
1	1292	5710
1	1294	5711
1	1312	5712
1	1346	5713
1	1396	5714
1	1449	5715
1	1492	5716
1	1533	5717
1	1560	5718
1	1574	5719
1	1581	5720
1	1561	5721
1	1528	5722
1	1490	5723
1	1443	5724
1	1399	5725
1	1348	5726
1	1309	5727
1	1283	5728
1	1275	5729
1	1286	5730
1	1309	5731
1	1345	5732
1	1384	5733
1	1435	5734
1	1494	5735
1	1545	5736
1	1591	5737
1	1622	5738
1	1643	5739
1	1638	5740
1	1620	5741
1	1589	5742
1	1549	5743
1	1502	5744
1	1446	5745
1	1383	5746
1	1338	5747
1	1304	5748
1	1282	5749
1	1291	5750
1	1306	5751
1	1340	5752
1	1382	5753
1	1437	5754
1	1493	5755
1	1549	5756
1	1597	5757
1	1634	5758
1	1657	5759
1	1661	5760
1	1647	5761
1	1616	5762
1	1573	5763
1	1517	5764
1	1466	5765
1	1409	5766
1	1354	5767
1	1311	5768
1	1282	5769
1	1275	5770
1	1285	5771
1	1319	5772
1	1366	5773
1	1424	5774
1	1488	5775
1	1547	5776
1	1605	5777
1	1647	5778
1	1671	5779
1	1641	5800
1	1634	5801
1	1615	5802
1	1590	5803
1	1556	5804
1	1520	5805
1	1475	5806
1	1436	5807
1	1398	5808
1	1364	5809
1	1361	5810
1	1368	5811
1	1384	5812
1	1424	5813
1	1468	5814
1	1523	5815
1	1575	5816
1	1619	5817
1	1652	5818
1	1673	5819
1	1684	5780
1	1664	5781
1	1626	5782
1	1586	5783
1	1539	5784
1	1492	5785
1	1449	5786
1	1409	5787
1	1369	5788
1	1343	5789
1	1332	5790
1	1330	5791
1	1346	5792
1	1372	5793
1	1410	5794
1	1468	5795
1	1525	5796
1	1573	5797
1	1615	5798
1	1638	5799
1	1680	5820
1	1663	5821
1	1639	5822
1	1605	5823
1	1557	5824
1	1508	5825
1	1467	5826
1	1423	5827
1	1395	5828
1	1372	5829
1	1372	5830
1	1384	5831
1	1417	5832
1	1453	5833
1	1503	5834
1	1553	5835
1	1600	5836
1	1644	5837
1	1686	5838
1	1712	5839
1	1730	5840
1	1728	5841
1	1710	5842
1	1683	5843
1	1641	5844
1	1593	5845
1	1544	5846
1	1503	5847
1	1464	5848
1	1432	5849
1	1414	5850
1	1405	5851
1	1418	5852
1	1436	5853
1	1465	5854
1	1512	5855
1	1559	5856
1	1611	5857
1	1659	5858
1	1693	5859
1	1712	5860
1	1713	5861
1	1698	5862
1	1671	5863
1	1635	5864
1	1593	5865
1	1542	5866
1	1497	5867
1	1456	5868
1	1424	5869
1	1415	5870
1	1409	5871
1	1424	5872
1	1450	5873
1	1490	5874
1	1541	5875
1	1599	5876
1	1653	5877
1	1695	5878
1	1715	5879
1	1724	5880
1	1710	5881
1	1686	5882
1	1652	5883
1	1610	5884
1	1570	5885
1	1524	5886
1	1476	5887
1	1436	5888
1	1403	5889
1	1392	5890
1	1395	5891
1	1412	5892
1	1442	5893
1	1487	5894
1	1543	5895
1	1597	5896
1	1648	5897
1	1689	5898
1	1714	5899
1	1727	5900
1	1716	5901
1	1687	5902
1	1652	5903
1	1608	5904
1	1559	5905
1	1513	5906
1	1476	5907
1	1445	5908
1	1427	5909
1	1424	5910
1	1428	5911
1	1449	5912
1	1476	5913
1	1514	5914
1	1558	5915
1	1611	5916
1	1652	5917
1	1686	5918
1	1702	5919
1	1704	5920
1	1690	5921
1	1664	5922
1	1629	5923
1	1587	5924
1	1539	5925
1	1494	5926
1	1451	5927
1	1419	5928
1	1398	5929
1	1402	5930
1	1420	5931
1	1446	5932
1	1479	5933
1	1533	5934
1	1584	5935
1	1634	5936
1	1675	5937
1	1706	5938
1	1719	5939
1	1719	5940
1	1700	5941
1	1677	5942
1	1646	5943
1	1608	5944
1	1572	5945
1	1530	5946
1	1498	5947
1	1475	5948
1	1459	5949
1	1459	5950
1	1468	5951
1	1485	5952
1	1517	5953
1	1556	5954
1	1607	5955
1	1652	5956
1	1699	5957
1	1736	5958
1	1758	5959
1	1769	5960
1	1755	5961
1	1719	5962
1	1672	5963
1	1619	5964
1	1560	5965
1	1504	5966
1	1458	5967
1	1423	5968
1	1398	5969
1	1395	5970
1	1395	5971
1	1418	5972
1	1449	5973
1	1498	5974
1	1569	5975
1	1644	5976
1	1716	5977
1	1786	5978
1	1843	5979
1	1881	5980
1	1896	5981
1	1895	5982
1	1884	5983
1	1861	5984
1	1834	5985
1	1803	5986
1	1778	5987
1	1762	5988
1	1755	5989
1	1780	5990
1	1818	5991
1	1872	5992
1	1945	5993
1	2024	5994
1	2107	5995
1	2194	5996
1	2281	5997
1	2357	5998
1	2419	5999
1	2457	6000
1	2464	6001
1	2458	6002
1	2435	6003
1	2396	6004
1	2352	6005
1	2288	6006
1	2215	6007
1	2137	6008
1	2062	6009
1	1989	6010
1	1922	6011
1	1869	6012
1	1832	6013
1	1803	6014
1	1796	6015
1	1796	6016
1	1799	6017
1	1796	6018
1	1787	6019
1	1765	6020
1	1731	6021
1	1687	6022
1	1646	6023
1	1599	6024
1	1558	6025
1	1503	6026
1	1478	6027
1	1450	6028
1	1436	6029
1	1433	6030
1	1444	6031
1	1468	6032
1	1501	6033
1	1548	6034
1	1608	6035
1	1670	6036
1	1725	6037
1	1773	6038
1	1817	6039
1	1787	6060
1	1779	6061
1	1754	6062
1	1721	6063
1	1682	6064
1	1647	6065
1	1607	6066
1	1572	6067
1	1541	6068
1	1517	6069
1	1503	6070
1	1506	6071
1	1524	6072
1	1555	6073
1	1594	6074
1	1643	6075
1	1684	6076
1	1728	6077
1	1763	6078
1	1788	6079
1	1833	6040
1	1832	6041
1	1809	6042
1	1767	6043
1	1716	6044
1	1662	6045
1	1603	6046
1	1555	6047
1	1521	6048
1	1497	6049
1	1489	6050
1	1487	6051
1	1499	6052
1	1517	6053
1	1547	6054
1	1590	6055
1	1639	6056
1	1690	6057
1	1738	6058
1	1775	6059
1	1813	6080
1	1811	6081
1	1785	6082
1	1757	6083
1	1716	6084
1	1669	6085
1	1616	6086
1	1571	6087
1	1534	6088
1	1516	6089
1	1516	6090
1	1526	6091
1	1549	6092
1	1581	6093
1	1622	6094
1	1674	6095
1	1723	6096
1	1769	6097
1	1815	6098
1	1843	6099
1	1857	6100
1	1850	6101
1	1827	6102
1	1789	6103
1	1746	6104
1	1696	6105
1	1638	6106
1	1593	6107
1	1555	6108
1	1530	6109
1	1528	6110
1	1530	6111
1	1545	6112
1	1574	6113
1	1613	6114
1	1665	6115
1	1723	6116
1	1777	6117
1	1827	6118
1	1856	6119
1	1878	6140
1	1868	6141
1	1844	6142
1	1817	6143
1	1779	6144
1	1737	6145
1	1695	6146
1	1660	6147
1	1639	6148
1	1630	6149
1	1633	6150
1	1635	6151
1	1656	6152
1	1685	6153
1	1725	6154
1	1780	6155
1	1836	6156
1	1883	6157
1	1922	6158
1	1947	6159
1	1866	6120
1	1854	6121
1	1827	6122
1	1790	6123
1	1747	6124
1	1699	6125
1	1659	6126
1	1611	6127
1	1586	6128
1	1569	6129
1	1567	6130
1	1572	6131
1	1592	6132
1	1620	6133
1	1658	6134
1	1705	6135
1	1751	6136
1	1798	6137
1	1843	6138
1	1869	6139
1	1948	6160
1	1935	6161
1	1907	6162
1	1868	6163
1	1819	6164
1	1769	6165
1	1718	6166
1	1679	6167
1	1643	6168
1	1613	6169
1	1609	6170
1	1616	6171
1	1638	6172
1	1674	6173
1	1718	6174
1	1773	6175
1	1842	6176
1	1897	6177
1	1948	6178
1	1983	6179
1	2000	6180
1	1988	6181
1	1965	6182
1	1930	6183
1	1883	6184
1	1837	6185
1	1778	6186
1	1726	6187
1	1686	6188
1	1661	6189
1	1656	6190
1	1660	6191
1	1679	6192
1	1710	6193
1	1751	6194
1	1809	6195
1	1863	6196
1	1924	6197
1	1982	6198
1	2026	6199
1	2053	6200
1	2055	6201
1	2035	6202
1	2000	6203
1	1953	6204
1	1896	6205
1	1845	6206
1	1799	6207
1	1763	6208
1	1730	6209
1	1713	6210
1	1711	6211
1	1729	6212
1	1763	6213
1	1817	6214
1	1883	6215
1	1949	6216
1	2011	6217
1	2062	6218
1	2097	6219
1	2107	6220
1	2101	6221
1	2079	6222
1	2039	6223
1	1998	6224
1	1948	6225
1	1895	6226
1	1845	6227
1	1803	6228
1	1775	6229
1	1769	6230
1	1776	6231
1	1795	6232
1	1835	6233
1	1882	6234
1	1935	6235
1	1991	6236
1	2039	6237
1	2079	6238
1	2105	6239
1	2090	6260
1	2084	6261
1	2066	6262
1	2028	6263
1	1983	6264
1	1932	6265
1	1882	6266
1	1841	6267
1	1794	6268
1	1764	6269
1	1746	6270
1	1734	6271
1	1739	6272
1	1762	6273
1	1794	6274
1	1850	6275
1	1895	6276
1	1940	6277
1	1974	6278
1	2001	6279
1	2110	6240
1	2093	6241
1	2070	6242
1	2031	6243
1	1985	6244
1	1931	6245
1	1872	6246
1	1823	6247
1	1782	6248
1	1756	6249
1	1751	6250
1	1763	6251
1	1790	6252
1	1830	6253
1	1875	6254
1	1931	6255
1	1975	6256
1	2017	6257
1	2052	6258
1	2075	6259
1	2013	6280
1	1992	6281
1	1966	6282
1	1922	6283
1	1872	6284
1	1820	6285
1	1765	6286
1	1723	6287
1	1685	6288
1	1660	6289
1	1661	6290
1	1671	6291
1	1692	6292
1	1728	6293
1	1769	6294
1	1825	6295
1	1878	6296
1	1927	6297
1	1965	6298
1	1988	6299
1	1982	6300
1	1963	6301
1	1926	6302
1	1881	6303
1	1822	6304
1	1759	6305
1	1695	6306
1	1634	6307
1	1581	6308
1	1546	6309
1	1538	6310
1	1550	6311
1	1581	6312
1	1628	6313
1	1686	6314
1	1739	6315
1	1798	6316
1	1854	6317
1	1895	6318
1	1922	6319
1	1940	6320
1	1940	6321
1	1922	6322
1	1895	6323
1	1854	6324
1	1796	6325
1	1751	6326
1	1712	6327
1	1679	6328
1	1652	6329
1	1634	6330
1	1634	6331
1	1636	6332
1	1657	6333
1	1691	6334
1	1742	6335
1	1800	6336
1	1855	6337
1	1895	6338
1	1931	6339
1	1940	6340
1	1934	6341
1	1914	6342
1	1886	6343
1	1849	6344
1	1796	6345
1	1751	6346
1	1712	6347
1	1674	6348
1	1643	6349
1	1632	6350
1	1625	6351
1	1637	6352
1	1661	6353
1	1700	6354
1	1751	6355
1	1809	6356
1	1859	6357
1	1901	6358
1	1932	6359
1	1935	6360
1	1927	6361
1	1904	6362
1	1869	6363
1	1827	6364
1	1777	6365
1	1726	6366
1	1682	6367
1	1642	6368
1	1611	6369
1	1600	6370
1	1607	6371
1	1633	6372
1	1669	6373
1	1716	6374
1	1769	6375
1	1830	6376
1	1881	6377
1	1920	6378
1	1940	6379
1	1949	6380
1	1937	6381
1	1908	6382
1	1881	6383
1	1842	6384
1	1788	6385
1	1738	6386
1	1697	6387
1	1663	6388
1	1643	6389
1	1633	6390
1	1636	6391
1	1660	6392
1	1697	6393
1	1738	6394
1	1792	6395
1	1849	6396
1	1899	6397
1	1944	6398
1	1971	6399
1	1978	6400
1	1971	6401
1	1944	6402
1	1904	6403
1	1862	6404
1	1808	6405
1	1760	6406
1	1720	6407
1	1687	6408
1	1669	6409
1	1665	6410
1	1670	6411
1	1691	6412
1	1723	6413
1	1762	6414
1	1817	6415
1	1870	6416
1	1922	6417
1	1961	6418
1	1987	6419
1	1994	6420
1	1988	6421
1	1966	6422
1	1928	6423
1	1878	6424
1	1823	6425
1	1773	6426
1	1729	6427
1	1688	6428
1	1660	6429
1	1646	6430
1	1645	6431
1	1660	6432
1	1686	6433
1	1719	6434
1	1762	6435
1	1813	6436
1	1858	6437
1	1899	6438
1	1928	6439
1	1948	6440
1	1948	6441
1	1934	6442
1	1913	6443
1	1878	6444
1	1836	6445
1	1787	6446
1	1744	6447
1	1707	6448
1	1678	6449
1	1659	6450
1	1659	6451
1	1683	6452
1	1724	6453
1	1775	6454
1	1845	6455
1	1908	6456
1	1965	6457
1	2016	6458
1	2044	6459
1	1980	6480
1	1979	6481
1	1962	6482
1	1936	6483
1	1900	6484
1	1863	6485
1	1818	6486
1	1778	6487
1	1739	6488
1	1708	6489
1	1686	6490
1	1678	6491
1	1686	6492
1	1706	6493
1	1738	6494
1	1785	6495
1	1843	6496
1	1895	6497
1	1948	6498
1	1983	6499
1	2004	6500
1	2002	6501
1	1981	6502
1	1948	6503
1	1899	6504
1	1847	6505
1	1791	6506
1	1744	6507
1	1705	6508
1	1674	6509
1	1652	6510
1	1651	6511
1	1668	6512
1	1703	6513
1	1749	6514
1	1817	6515
1	1879	6516
1	1936	6517
1	1983	6518
1	2012	6519
1	2051	6460
1	2035	6461
1	2002	6462
1	1961	6463
1	1907	6464
1	1841	6465
1	1770	6466
1	1713	6467
1	1662	6468
1	1634	6469
1	1631	6470
1	1634	6471
1	1656	6472
1	1686	6473
1	1729	6474
1	1777	6475
1	1841	6476
1	1893	6477
1	1939	6478
1	1973	6479
1	2024	6520
1	2009	6521
1	1976	6522
1	1929	6523
1	1880	6524
1	1826	6525
1	1769	6526
1	1723	6527
1	1683	6528
1	1652	6529
1	1646	6530
1	1647	6531
1	1665	6532
1	1698	6533
1	1751	6534
1	1803	6535
1	1859	6536
1	1908	6537
1	1949	6538
1	1978	6539
1	1989	6540
1	1986	6541
1	1972	6542
1	1948	6543
1	1913	6544
1	1878	6545
1	1836	6546
1	1792	6547
1	1760	6548
1	1738	6549
1	1728	6550
1	1729	6551
1	1740	6552
1	1765	6553
1	1803	6554
1	1849	6555
1	1898	6556
1	1944	6557
1	1970	6558
1	1982	6559
1	1987	6560
1	1974	6561
1	1948	6562
1	1910	6563
1	1871	6564
1	1830	6565
1	1791	6566
1	1764	6567
1	1742	6568
1	1730	6569
1	1719	6570
1	1728	6571
1	1742	6572
1	1766	6573
1	1800	6574
1	1853	6575
1	1896	6576
1	1939	6577
1	1974	6578
1	1999	6579
1	1998	6580
1	1983	6581
1	1956	6582
1	1917	6583
1	1870	6584
1	1821	6585
1	1765	6586
1	1721	6587
1	1683	6588
1	1659	6589
1	1660	6590
1	1674	6591
1	1704	6592
1	1751	6593
1	1803	6594
1	1867	6595
1	1927	6596
1	1985	6597
1	2027	6598
1	2053	6599
1	2054	6600
1	2041	6601
1	2012	6602
1	1971	6603
1	1919	6604
1	1867	6605
1	1809	6606
1	1752	6607
1	1712	6608
1	1683	6609
1	1673	6610
1	1686	6611
1	1712	6612
1	1751	6613
1	1808	6614
1	1856	6615
1	1910	6616
1	1957	6617
1	1991	6618
1	2010	6619
1	2017	6620
1	2000	6621
1	1970	6622
1	1923	6623
1	1885	6624
1	1832	6625
1	1780	6626
1	1742	6627
1	1712	6628
1	1691	6629
1	1686	6630
1	1690	6631
1	1712	6632
1	1750	6633
1	1791	6634
1	1848	6635
1	1899	6636
1	1949	6637
1	1987	6638
1	2017	6639
1	2025	6640
1	2016	6641
1	1992	6642
1	1959	6643
1	1921	6644
1	1869	6645
1	1826	6646
1	1783	6647
1	1750	6648
1	1722	6649
1	1715	6650
1	1716	6651
1	1735	6652
1	1762	6653
1	1801	6654
1	1856	6655
1	1908	6656
1	1958	6657
1	1996	6658
1	2018	6659
1	2019	6660
1	2005	6661
1	1980	6662
1	1948	6663
1	1904	6664
1	1867	6665
1	1818	6666
1	1775	6667
1	1737	6668
1	1710	6669
1	1697	6670
1	1703	6671
1	1725	6672
1	1757	6673
1	1801	6674
1	1855	6675
1	1905	6676
1	1958	6677
1	2000	6678
1	2027	6679
1	2048	6680
1	2037	6681
1	2010	6682
1	1969	6683
1	1922	6684
1	1870	6685
1	1823	6686
1	1779	6687
1	1742	6688
1	1715	6689
1	1703	6690
1	1708	6691
1	1725	6692
1	1751	6693
1	1789	6694
1	1843	6695
1	1895	6696
1	1948	6697
1	1995	6698
1	2026	6699
1	2035	6700
1	2028	6701
1	2006	6702
1	1970	6703
1	1922	6704
1	1864	6705
1	1817	6706
1	1770	6707
1	1739	6708
1	1715	6709
1	1715	6710
1	1726	6711
1	1744	6712
1	1776	6713
1	1822	6714
1	1872	6715
1	1926	6716
1	1975	6717
1	2014	6718
1	2039	6719
1	2039	6720
1	2026	6721
1	2001	6722
1	1966	6723
1	1922	6724
1	1881	6725
1	1844	6726
1	1809	6727
1	1773	6728
1	1751	6729
1	1738	6730
1	1741	6731
1	1763	6732
1	1795	6733
1	1843	6734
1	1892	6735
1	1947	6736
1	1998	6737
1	2038	6738
1	2061	6739
1	2070	6740
1	2061	6741
1	2036	6742
1	2009	6743
1	1970	6744
1	1922	6745
1	1872	6746
1	1825	6747
1	1775	6748
1	1739	6749
1	1715	6750
1	1711	6751
1	1717	6752
1	1738	6753
1	1764	6754
1	1815	6755
1	1855	6756
1	1891	6757
1	1918	6758
1	1931	6759
1	1927	6760
1	1919	6761
1	1895	6762
1	1860	6763
1	1825	6764
1	1777	6765
1	1737	6766
1	1704	6767
1	1681	6768
1	1663	6769
1	1669	6770
1	1680	6771
1	1705	6772
1	1738	6773
1	1779	6774
1	1829	6775
1	1872	6776
1	1913	6777
1	1947	6778
1	1971	6779
1	1973	6780
1	1963	6781
1	1937	6782
1	1901	6783
1	1859	6784
1	1817	6785
1	1762	6786
1	1712	6787
1	1673	6788
1	1647	6789
1	1638	6790
1	1647	6791
1	1671	6792
1	1710	6793
1	1757	6794
1	1816	6795
1	1870	6796
1	1921	6797
1	1957	6798
1	1976	6799
1	1988	6800
1	1976	6801
1	1948	6802
1	1908	6803
1	1857	6804
1	1796	6805
1	1743	6806
1	1702	6807
1	1674	6808
1	1660	6809
1	1656	6810
1	1661	6811
1	1683	6812
1	1712	6813
1	1754	6814
1	1814	6815
1	1864	6816
1	1913	6817
1	1955	6818
1	1982	6819
1	1991	6820
1	1982	6821
1	1958	6822
1	1913	6823
1	1868	6824
1	1814	6825
1	1755	6826
1	1712	6827
1	1674	6828
1	1647	6829
1	1634	6830
1	1629	6831
1	1634	6832
1	1656	6833
1	1692	6834
1	1734	6835
1	1777	6836
1	1823	6837
1	1863	6838
1	1890	6839
1	1895	6840
1	1890	6841
1	1869	6842
1	1843	6843
1	1801	6844
1	1761	6845
1	1715	6846
1	1675	6847
1	1644	6848
1	1621	6849
1	1613	6850
1	1625	6851
1	1655	6852
1	1695	6853
1	1749	6854
1	1814	6855
1	1883	6856
1	1954	6857
1	2017	6858
1	2067	6859
1	2105	6860
1	2126	6861
1	2133	6862
1	2132	6863
1	2122	6864
1	2105	6865
1	2088	6866
1	2079	6867
1	2079	6868
1	2083	6869
1	2095	6870
1	2120	6871
1	2157	6872
1	2210	6873
1	2275	6874
1	2354	6875
1	2432	6876
1	2506	6877
1	2558	6878
1	2600	6879
1	2622	6880
1	2617	6881
1	2587	6882
1	2531	6883
1	2461	6884
1	2353	6885
1	2232	6886
1	2105	6887
1	1987	6888
1	1881	6889
1	1798	6890
1	1733	6891
1	1692	6892
1	1681	6893
1	1687	6894
1	1712	6895
1	1747	6896
1	1780	6897
1	1809	6898
1	1819	6899
1	1814	6900
1	1788	6901
1	1758	6902
1	1721	6903
1	1686	6904
1	1658	6905
1	1624	6906
1	1593	6907
1	1567	6908
1	1549	6909
1	1543	6910
1	1553	6911
1	1571	6912
1	1607	6913
1	1654	6914
1	1711	6915
1	1778	6916
1	1845	6917
1	1894	6918
1	1922	6919
1	1931	6920
1	1917	6921
1	1890	6922
1	1829	6923
1	1779	6924
1	1726	6925
1	1669	6926
1	1621	6927
1	1585	6928
1	1562	6929
1	1553	6930
1	1556	6931
1	1581	6932
1	1621	6933
1	1670	6934
1	1727	6935
1	1790	6936
1	1845	6937
1	1893	6938
1	1924	6939
1	1930	6940
1	1914	6941
1	1881	6942
1	1843	6943
1	1795	6944
1	1740	6945
1	1691	6946
1	1652	6947
1	1616	6948
1	1589	6949
1	1575	6950
1	1571	6951
1	1581	6952
1	1611	6953
1	1655	6954
1	1705	6955
1	1759	6956
1	1816	6957
1	1864	6958
1	1900	6959
1	1916	6960
1	1913	6961
1	1892	6962
1	1851	6963
1	1796	6964
1	1746	6965
1	1688	6966
1	1647	6967
1	1611	6968
1	1592	6969
1	1584	6970
1	1590	6971
1	1607	6972
1	1634	6973
1	1668	6974
1	1711	6975
1	1760	6976
1	1812	6977
1	1851	6978
1	1877	6979
1	1895	6980
1	1890	6981
1	1865	6982
1	1838	6983
1	1799	6984
1	1760	6985
1	1714	6986
1	1674	6987
1	1634	6988
1	1607	6989
1	1585	6990
1	1582	6991
1	1595	6992
1	1620	6993
1	1656	6994
1	1707	6995
1	1756	6996
1	1809	6997
1	1851	6998
1	1878	6999
1	1886	7000
1	1881	7001
1	1858	7002
1	1829	7003
1	1790	7004
1	1742	7005
1	1699	7006
1	1661	7007
1	1629	7008
1	1605	7009
1	1598	7010
1	1598	7011
1	1608	7012
1	1628	7013
1	1656	7014
1	1698	7015
1	1748	7016
1	1800	7017
1	1852	7018
1	1884	7019
1	1895	7020
1	1897	7021
1	1881	7022
1	1852	7023
1	1812	7024
1	1764	7025
1	1723	7026
1	1682	7027
1	1643	7028
1	1610	7029
1	1597	7030
1	1594	7031
1	1607	7032
1	1636	7033
1	1678	7034
1	1724	7035
1	1780	7036
1	1841	7037
1	1888	7038
1	1922	7039
1	1940	7060
1	1932	7061
1	1907	7062
1	1868	7063
1	1821	7064
1	1762	7065
1	1711	7066
1	1667	7067
1	1632	7068
1	1608	7069
1	1607	7070
1	1620	7071
1	1644	7072
1	1680	7073
1	1724	7074
1	1778	7075
1	1843	7076
1	1901	7077
1	1949	7078
1	1987	7079
1	1937	7040
1	1926	7041
1	1898	7042
1	1867	7043
1	1824	7044
1	1770	7045
1	1725	7046
1	1682	7047
1	1647	7048
1	1625	7049
1	1611	7050
1	1615	7051
1	1636	7052
1	1671	7053
1	1713	7054
1	1770	7055
1	1826	7056
1	1869	7057
1	1906	7058
1	1931	7059
1	2000	7080
1	2001	7081
1	1985	7082
1	1949	7083
1	1899	7084
1	1846	7085
1	1773	7086
1	1712	7087
1	1657	7088
1	1623	7089
1	1611	7090
1	1622	7091
1	1648	7092
1	1687	7093
1	1734	7094
1	1783	7095
1	1841	7096
1	1887	7097
1	1926	7098
1	1953	7099
1	1971	7100
1	1964	7101
1	1947	7102
1	1911	7103
1	1868	7104
1	1817	7105
1	1766	7106
1	1725	7107
1	1688	7108
1	1661	7109
1	1644	7110
1	1643	7111
1	1656	7112
1	1682	7113
1	1718	7114
1	1773	7115
1	1831	7116
1	1881	7117
1	1922	7118
1	1953	7119
1	1969	7120
1	1966	7121
1	1946	7122
1	1908	7123
1	1861	7124
1	1800	7125
1	1744	7126
1	1698	7127
1	1659	7128
1	1629	7129
1	1611	7130
1	1607	7131
1	1618	7132
1	1643	7133
1	1686	7134
1	1736	7135
1	1789	7136
1	1842	7137
1	1880	7138
1	1905	7139
1	1907	7140
1	1895	7141
1	1868	7142
1	1829	7143
1	1777	7144
1	1722	7145
1	1664	7146
1	1611	7147
1	1570	7148
1	1541	7149
1	1530	7150
1	1538	7151
1	1559	7152
1	1590	7153
1	1628	7154
1	1664	7155
1	1706	7156
1	1748	7157
1	1787	7158
1	1815	7159
1	1827	7160
1	1817	7161
1	1786	7162
1	1739	7163
1	1695	7164
1	1638	7165
1	1582	7166
1	1530	7167
1	1489	7168
1	1451	7169
1	1424	7170
1	1415	7171
1	1424	7172
1	1451	7173
1	1489	7174
1	1542	7175
1	1593	7176
1	1644	7177
1	1689	7178
1	1723	7179
1	1739	7200
1	1728	7201
1	1701	7202
1	1664	7203
1	1625	7204
1	1581	7205
1	1530	7206
1	1490	7207
1	1450	7208
1	1424	7209
1	1410	7210
1	1411	7211
1	1424	7212
1	1451	7213
1	1492	7214
1	1540	7215
1	1593	7216
1	1638	7217
1	1676	7218
1	1694	7219
1	1735	7180
1	1724	7181
1	1699	7182
1	1660	7183
1	1615	7184
1	1566	7185
1	1518	7186
1	1476	7187
1	1437	7188
1	1409	7189
1	1398	7190
1	1397	7191
1	1410	7192
1	1437	7193
1	1478	7194
1	1531	7195
1	1593	7196
1	1654	7197
1	1701	7198
1	1735	7199
1	1700	7220
1	1683	7221
1	1650	7222
1	1607	7223
1	1567	7224
1	1513	7225
1	1467	7226
1	1428	7227
1	1397	7228
1	1373	7229
1	1368	7230
1	1373	7231
1	1399	7232
1	1434	7233
1	1477	7234
1	1534	7235
1	1587	7236
1	1634	7237
1	1674	7238
1	1706	7239
1	1700	7260
1	1703	7261
1	1684	7262
1	1647	7263
1	1599	7264
1	1546	7265
1	1489	7266
1	1440	7267
1	1399	7268
1	1368	7269
1	1354	7270
1	1359	7271
1	1376	7272
1	1409	7273
1	1448	7274
1	1493	7275
1	1550	7276
1	1600	7277
1	1646	7278
1	1675	7279
1	1695	7280
1	1688	7281
1	1670	7282
1	1643	7283
1	1604	7284
1	1555	7285
1	1503	7286
1	1460	7287
1	1423	7288
1	1384	7289
1	1358	7290
1	1355	7291
1	1366	7292
1	1392	7293
1	1424	7294
1	1476	7295
1	1529	7296
1	1581	7297
1	1625	7298
1	1652	7299
1	1716	7240
1	1718	7241
1	1700	7242
1	1669	7243
1	1629	7244
1	1568	7245
1	1515	7246
1	1463	7247
1	1413	7248
1	1372	7249
1	1356	7250
1	1350	7251
1	1363	7252
1	1395	7253
1	1430	7254
1	1478	7255
1	1534	7256
1	1589	7257
1	1641	7258
1	1681	7259
1	1662	7300
1	1660	7301
1	1644	7302
1	1615	7303
1	1579	7304
1	1529	7305
1	1479	7306
1	1439	7307
1	1405	7308
1	1373	7309
1	1358	7310
1	1352	7311
1	1363	7312
1	1393	7313
1	1433	7314
1	1487	7315
1	1542	7316
1	1593	7317
1	1633	7318
1	1659	7319
1	1659	7320
1	1647	7321
1	1620	7322
1	1580	7323
1	1533	7324
1	1481	7325
1	1440	7326
1	1393	7327
1	1337	7328
1	1319	7329
1	1314	7330
1	1318	7331
1	1340	7332
1	1372	7333
1	1413	7334
1	1464	7335
1	1518	7336
1	1570	7337
1	1618	7338
1	1647	7339
1	1660	7340
1	1655	7341
1	1634	7342
1	1607	7343
1	1569	7344
1	1526	7345
1	1474	7346
1	1423	7347
1	1372	7348
1	1337	7349
1	1317	7350
1	1317	7351
1	1332	7352
1	1363	7353
1	1409	7354
1	1472	7355
1	1529	7356
1	1582	7357
1	1628	7358
1	1655	7359
1	1661	7360
1	1654	7361
1	1629	7362
1	1593	7363
1	1544	7364
1	1489	7365
1	1436	7366
1	1379	7367
1	1332	7368
1	1294	7369
1	1276	7370
1	1272	7371
1	1286	7372
1	1315	7373
1	1351	7374
1	1410	7375
1	1469	7376
1	1529	7377
1	1581	7378
1	1619	7379
1	1634	7380
1	1629	7381
1	1608	7382
1	1573	7383
1	1530	7384
1	1485	7385
1	1434	7386
1	1392	7387
1	1357	7388
1	1337	7389
1	1328	7390
1	1328	7391
1	1338	7392
1	1356	7393
1	1394	7394
1	1437	7395
1	1493	7396
1	1547	7397
1	1594	7398
1	1629	7399
1	1649	7400
1	1647	7401
1	1632	7402
1	1598	7403
1	1555	7404
1	1504	7405
1	1450	7406
1	1403	7407
1	1357	7408
1	1324	7409
1	1302	7410
1	1301	7411
1	1319	7412
1	1343	7413
1	1381	7414
1	1439	7415
1	1496	7416
1	1547	7417
1	1587	7418
1	1610	7419
1	1616	7420
1	1608	7421
1	1592	7422
1	1556	7423
1	1513	7424
1	1462	7425
1	1406	7426
1	1350	7427
1	1312	7428
1	1283	7429
1	1274	7430
1	1278	7431
1	1295	7432
1	1324	7433
1	1372	7434
1	1427	7435
1	1489	7436
1	1544	7437
1	1590	7438
1	1625	7439
1	1634	7440
1	1631	7441
1	1607	7442
1	1574	7443
1	1529	7444
1	1480	7445
1	1428	7446
1	1382	7447
1	1346	7448
1	1323	7449
1	1319	7450
1	1328	7451
1	1350	7452
1	1382	7453
1	1424	7454
1	1458	7455
1	1504	7456
1	1550	7457
1	1589	7458
1	1618	7459
1	1634	7460
1	1631	7461
1	1607	7462
1	1566	7463
1	1517	7464
1	1466	7465
1	1411	7466
1	1359	7467
1	1319	7468
1	1292	7469
1	1271	7470
1	1274	7471
1	1293	7472
1	1319	7473
1	1356	7474
1	1409	7475
1	1459	7476
1	1514	7477
1	1565	7478
1	1604	7479
1	1625	7480
1	1621	7481
1	1598	7482
1	1561	7483
1	1518	7484
1	1464	7485
1	1409	7486
1	1359	7487
1	1317	7488
1	1282	7489
1	1268	7490
1	1267	7491
1	1285	7492
1	1322	7493
1	1372	7494
1	1436	7495
1	1499	7496
1	1555	7497
1	1603	7498
1	1634	7499
1	1642	7500
1	1633	7501
1	1608	7502
1	1572	7503
1	1529	7504
1	1482	7505
1	1429	7506
1	1377	7507
1	1332	7508
1	1296	7509
1	1281	7510
1	1283	7511
1	1301	7512
1	1336	7513
1	1384	7514
1	1443	7515
1	1504	7516
1	1559	7517
1	1608	7518
1	1636	7519
1	1651	7520
1	1639	7521
1	1611	7522
1	1563	7523
1	1516	7524
1	1449	7525
1	1382	7526
1	1321	7527
1	1278	7528
1	1247	7529
1	1238	7530
1	1243	7531
1	1265	7532
1	1299	7533
1	1347	7534
1	1406	7535
1	1469	7536
1	1523	7537
1	1569	7538
1	1609	7539
1	1624	7540
1	1616	7541
1	1587	7542
1	1544	7543
1	1497	7544
1	1437	7545
1	1384	7546
1	1333	7547
1	1293	7548
1	1267	7549
1	1265	7550
1	1268	7551
1	1289	7552
1	1319	7553
1	1360	7554
1	1418	7555
1	1476	7556
1	1533	7557
1	1578	7558
1	1602	7559
1	1606	7560
1	1593	7561
1	1568	7562
1	1529	7563
1	1487	7564
1	1443	7565
1	1398	7566
1	1359	7567
1	1332	7568
1	1310	7569
1	1301	7570
1	1305	7571
1	1320	7572
1	1346	7573
1	1384	7574
1	1428	7575
1	1474	7576
1	1517	7577
1	1554	7578
1	1581	7579
1	1594	7580
1	1584	7581
1	1555	7582
1	1530	7583
1	1498	7584
1	1461	7585
1	1424	7586
1	1390	7587
1	1356	7588
1	1332	7589
1	1318	7590
1	1318	7591
1	1330	7592
1	1351	7593
1	1393	7594
1	1438	7595
1	1487	7596
1	1535	7597
1	1577	7598
1	1606	7599
1	1616	7600
1	1611	7601
1	1594	7602
1	1556	7603
1	1505	7604
1	1446	7605
1	1394	7606
1	1346	7607
1	1308	7608
1	1281	7609
1	1275	7610
1	1284	7611
1	1310	7612
1	1346	7613
1	1395	7614
1	1448	7615
1	1503	7616
1	1555	7617
1	1603	7618
1	1634	7619
1	1620	7640
1	1611	7641
1	1590	7642
1	1564	7643
1	1529	7644
1	1484	7645
1	1437	7646
1	1392	7647
1	1351	7648
1	1324	7649
1	1306	7650
1	1305	7651
1	1317	7652
1	1343	7653
1	1384	7654
1	1443	7655
1	1494	7656
1	1544	7657
1	1590	7658
1	1625	7659
1	1643	7620
1	1642	7621
1	1628	7622
1	1596	7623
1	1557	7624
1	1512	7625
1	1469	7626
1	1427	7627
1	1377	7628
1	1346	7629
1	1325	7630
1	1319	7631
1	1332	7632
1	1358	7633
1	1402	7634
1	1449	7635
1	1503	7636
1	1553	7637
1	1593	7638
1	1619	7639
1	1647	7660
1	1649	7661
1	1638	7662
1	1607	7663
1	1566	7664
1	1505	7665
1	1450	7666
1	1398	7667
1	1346	7668
1	1310	7669
1	1289	7670
1	1281	7671
1	1293	7672
1	1319	7673
1	1350	7674
1	1404	7675
1	1459	7676
1	1512	7677
1	1555	7678
1	1583	7679
1	1592	7680
1	1585	7681
1	1569	7682
1	1541	7683
1	1503	7684
1	1466	7685
1	1424	7686
1	1384	7687
1	1347	7688
1	1319	7689
1	1297	7690
1	1293	7691
1	1297	7692
1	1315	7693
1	1346	7694
1	1395	7695
1	1445	7696
1	1499	7697
1	1547	7698
1	1591	7699
1	1619	7700
1	1620	7701
1	1603	7702
1	1566	7703
1	1517	7704
1	1464	7705
1	1410	7706
1	1359	7707
1	1316	7708
1	1281	7709
1	1256	7710
1	1258	7711
1	1271	7712
1	1299	7713
1	1338	7714
1	1392	7715
1	1445	7716
1	1498	7717
1	1542	7718
1	1579	7719
1	1594	7720
1	1593	7721
1	1571	7722
1	1543	7723
1	1506	7724
1	1464	7725
1	1422	7726
1	1377	7727
1	1344	7728
1	1319	7729
1	1296	7730
1	1293	7731
1	1299	7732
1	1322	7733
1	1364	7734
1	1419	7735
1	1476	7736
1	1530	7737
1	1575	7738
1	1603	7739
1	1606	7740
1	1592	7741
1	1557	7742
1	1512	7743
1	1463	7744
1	1411	7745
1	1350	7746
1	1299	7747
1	1260	7748
1	1232	7749
1	1229	7750
1	1244	7751
1	1277	7752
1	1320	7753
1	1377	7754
1	1449	7755
1	1523	7756
1	1594	7757
1	1660	7758
1	1718	7759
1	1764	7760
1	1791	7761
1	1801	7762
1	1801	7763
1	1791	7764
1	1777	7765
1	1757	7766
1	1743	7767
1	1734	7768
1	1734	7769
1	1739	7770
1	1764	7771
1	1811	7772
1	1868	7773
1	1932	7774
1	2012	7775
1	2094	7776
1	2173	7777
1	2251	7778
1	2311	7779
1	1615	7800
1	1594	7801
1	1564	7802
1	1529	7803
1	1490	7804
1	1450	7805
1	1407	7806
1	1364	7807
1	1332	7808
1	1308	7809
1	1295	7810
1	1301	7811
1	1319	7812
1	1351	7813
1	1384	7814
1	1430	7815
1	1476	7816
1	1524	7817
1	1565	7818
1	1598	7819
1	2354	7780
1	2374	7781
1	2365	7782
1	2338	7783
1	2291	7784
1	2222	7785
1	2143	7786
1	2054	7787
1	1961	7788
1	1868	7789
1	1783	7790
1	1712	7791
1	1652	7792
1	1609	7793
1	1584	7794
1	1580	7795
1	1590	7796
1	1607	7797
1	1621	7798
1	1628	7799
1	1621	7820
1	1619	7821
1	1596	7822
1	1573	7823
1	1535	7824
1	1487	7825
1	1450	7826
1	1416	7827
1	1379	7828
1	1349	7829
1	1333	7830
1	1332	7831
1	1345	7832
1	1372	7833
1	1415	7834
1	1457	7835
1	1511	7836
1	1557	7837
1	1596	7838
1	1628	7839
1	1652	7860
1	1647	7861
1	1628	7862
1	1593	7863
1	1552	7864
1	1503	7865
1	1448	7866
1	1398	7867
1	1356	7868
1	1335	7869
1	1328	7870
1	1333	7871
1	1350	7872
1	1384	7873
1	1432	7874
1	1484	7875
1	1544	7876
1	1600	7877
1	1652	7878
1	1690	7879
1	1635	7840
1	1632	7841
1	1609	7842
1	1581	7843
1	1548	7844
1	1500	7845
1	1462	7846
1	1424	7847
1	1383	7848
1	1354	7849
1	1340	7850
1	1337	7851
1	1346	7852
1	1372	7853
1	1411	7854
1	1455	7855
1	1508	7856
1	1561	7857
1	1605	7858
1	1639	7859
1	1718	7880
1	1721	7881
1	1703	7882
1	1686	7883
1	1651	7884
1	1607	7885
1	1555	7886
1	1506	7887
1	1458	7888
1	1424	7889
1	1399	7890
1	1398	7891
1	1407	7892
1	1428	7893
1	1465	7894
1	1514	7895
1	1564	7896
1	1611	7897
1	1655	7898
1	1685	7899
1	1697	7900
1	1695	7901
1	1683	7902
1	1657	7903
1	1624	7904
1	1581	7905
1	1539	7906
1	1503	7907
1	1472	7908
1	1449	7909
1	1438	7910
1	1440	7911
1	1454	7912
1	1485	7913
1	1525	7914
1	1568	7915
1	1616	7916
1	1661	7917
1	1699	7918
1	1725	7919
1	1731	7920
1	1726	7921
1	1708	7922
1	1677	7923
1	1643	7924
1	1605	7925
1	1566	7926
1	1528	7927
1	1502	7928
1	1478	7929
1	1471	7930
1	1476	7931
1	1492	7932
1	1521	7933
1	1555	7934
1	1596	7935
1	1643	7936
1	1682	7937
1	1714	7938
1	1740	7939
1	1750	7940
1	1746	7941
1	1730	7942
1	1704	7943
1	1668	7944
1	1629	7945
1	1587	7946
1	1555	7947
1	1524	7948
1	1501	7949
1	1481	7950
1	1482	7951
1	1495	7952
1	1522	7953
1	1562	7954
1	1618	7955
1	1677	7956
1	1736	7957
1	1788	7958
1	1832	7959
1	1870	7980
1	1861	7981
1	1843	7982
1	1813	7983
1	1778	7984
1	1744	7985
1	1711	7986
1	1682	7987
1	1652	7988
1	1633	7989
1	1619	7990
1	1620	7991
1	1634	7992
1	1660	7993
1	1697	7994
1	1739	7995
1	1782	7996
1	1830	7997
1	1870	7998
1	1901	7999
1	1854	7960
1	1854	7961
1	1839	7962
1	1800	7963
1	1759	7964
1	1699	7965
1	1644	7966
1	1593	7967
1	1548	7968
1	1512	7969
1	1497	7970
1	1501	7971
1	1523	7972
1	1557	7973
1	1602	7974
1	1658	7975
1	1719	7976
1	1780	7977
1	1835	7978
1	1863	7979
1	1922	8000
1	1926	8000
1	1914	8002
1	1885	8003
1	1845	8004
1	1792	8005
1	1744	8006
1	1703	8007
1	1663	8008
1	1634	8009
1	1609	8010
1	1609	8011
1	1632	8012
1	1660	8013
1	1703	8013
1	1753	8015
1	1809	8016
1	1856	8016
1	1897	8018
1	1926	8019
1	1946	8020
1	1946	8021
1	1927	8022
1	1904	8023
1	1869	8024
1	1826	8025
1	1772	8026
1	1728	8027
1	1687	8028
1	1663	8029
1	1647	8029
1	1645	8031
1	1659	8032
1	1684	8032
1	1726	8034
1	1766	8035
1	1817	8036
1	1862	8037
1	1898	8038
1	1919	8039
1	1865	8060
1	1858	8061
1	1839	8061
1	1800	8063
1	1762	8064
1	1722	8064
1	1675	8066
1	1634	8067
1	1595	8068
1	1566	8069
1	1544	8070
1	1541	8071
1	1551	8072
1	1564	8073
1	1592	8074
1	1625	8074
1	1661	8076
1	1698	8077
1	1733	8077
1	1756	8079
1	1911	8040
1	1896	8041
1	1870	8042
1	1837	8043
1	1795	8044
1	1763	8045
1	1717	8045
1	1681	8047
1	1644	8048
1	1608	8048
1	1589	8050
1	1581	8051
1	1592	8052
1	1611	8053
1	1646	8054
1	1686	8055
1	1733	8056
1	1778	8057
1	1825	8058
1	1854	8059
1	1770	8080
1	1778	8080
1	1773	8082
1	1764	8083
1	1748	8084
1	1717	8085
1	1683	8086
1	1647	8087
1	1608	8088
1	1573	8089
1	1548	8090
1	1535	8090
1	1536	8092
1	1553	8093
1	1582	8093
1	1625	8095
1	1674	8096
1	1720	8096
1	1764	8098
1	1794	8099
1	1803	8100
1	1796	8101
1	1773	8102
1	1734	8103
1	1685	8104
1	1628	8105
1	1562	8106
1	1505	8106
1	1461	8108
1	1433	8109
1	1424	8109
1	1437	8111
1	1459	8112
1	1500	8113
1	1545	8114
1	1602	8115
1	1665	8116
1	1731	8117
1	1790	8118
1	1843	8119
1	1872	8120
1	1883	8121
1	1869	8122
1	1831	8122
1	1782	8124
1	1721	8125
1	1648	8125
1	1589	8127
1	1535	8128
1	1495	8129
1	1476	8130
1	1472	8131
1	1486	8132
1	1516	8133
1	1562	8134
1	1613	8135
1	1674	8136
1	1735	8137
1	1778	8138
1	1812	8138
1	1825	8140
1	1817	8141
1	1791	8141
1	1751	8143
1	1710	8144
1	1652	8145
1	1615	8146
1	1581	8147
1	1553	8148
1	1531	8149
1	1528	8150
1	1538	8151
1	1560	8152
1	1593	8153
1	1634	8154
1	1683	8154
1	1736	8156
1	1783	8157
1	1831	8157
1	1860	8159
1	1868	8160
1	1862	8161
1	1843	8162
1	1811	8163
1	1770	8164
1	1727	8165
1	1678	8166
1	1634	8167
1	1594	8168
1	1563	8169
1	1542	8170
1	1538	8170
1	1544	8172
1	1571	8173
1	1607	8173
1	1647	8175
1	1699	8176
1	1751	8177
1	1795	8178
1	1837	8179
1	1861	8180
1	1867	8181
1	1854	8182
1	1825	8183
1	1783	8184
1	1738	8185
1	1691	8186
1	1647	8186
1	1607	8188
1	1579	8189
1	1556	8189
1	1556	8191
1	1572	8192
1	1603	8193
1	1647	8194
1	1700	8195
1	1755	8196
1	1811	8197
1	1849	8198
1	1873	8199
1	1883	8200
1	1876	8201
1	1855	8202
1	1819	8203
1	1778	8204
1	1731	8205
1	1689	8206
1	1660	8207
1	1634	8208
1	1620	8209
1	1616	8210
1	1620	8211
1	1634	8212
1	1660	8213
1	1695	8214
1	1739	8215
1	1791	8216
1	1841	8217
1	1874	8218
1	1899	8219
1	1901	8220
1	1895	8221
1	1869	8222
1	1838	8223
1	1791	8224
1	1747	8225
1	1710	8226
1	1677	8227
1	1638	8228
1	1621	8229
1	1605	8230
1	1597	8231
1	1599	8232
1	1617	8233
1	1646	8234
1	1682	8235
1	1726	8236
1	1776	8237
1	1823	8238
1	1857	8239
1	1939	8260
1	1937	8261
1	1919	8262
1	1890	8263
1	1850	8264
1	1793	8265
1	1746	8266
1	1701	8267
1	1660	8268
1	1631	8269
1	1610	8270
1	1607	8271
1	1616	8272
1	1639	8273
1	1675	8274
1	1720	8275
1	1770	8276
1	1827	8277
1	1871	8278
1	1904	8279
1	1869	8240
1	1867	8241
1	1850	8242
1	1827	8243
1	1785	8244
1	1738	8245
1	1686	8246
1	1634	8247
1	1590	8248
1	1556	8249
1	1539	8250
1	1550	8251
1	1571	8252
1	1605	8253
1	1652	8254
1	1710	8255
1	1767	8256
1	1831	8257
1	1881	8258
1	1919	8259
1	1909	8280
1	1901	8281
1	1880	8282
1	1850	8283
1	1814	8284
1	1760	8285
1	1710	8286
1	1661	8287
1	1625	8288
1	1590	8289
1	1566	8290
1	1562	8291
1	1580	8292
1	1607	8293
1	1647	8294
1	1692	8295
1	1738	8296
1	1791	8297
1	1844	8298
1	1886	8299
1	1908	8300
1	1908	8301
1	1891	8302
1	1861	8303
1	1824	8304
1	1777	8305
1	1729	8306
1	1686	8307
1	1650	8308
1	1621	8309
1	1607	8310
1	1603	8311
1	1616	8312
1	1644	8313
1	1685	8314
1	1731	8315
1	1780	8316
1	1830	8317
1	1869	8318
1	1895	8319
1	1906	8320
1	1899	8321
1	1870	8322
1	1841	8323
1	1791	8324
1	1747	8325
1	1695	8326
1	1649	8327
1	1616	8328
1	1594	8329
1	1581	8330
1	1585	8331
1	1605	8332
1	1634	8333
1	1678	8334
1	1728	8335
1	1788	8336
1	1847	8337
1	1895	8338
1	1923	8339
1	1899	8360
1	1895	8361
1	1877	8362
1	1844	8363
1	1808	8364
1	1762	8365
1	1718	8366
1	1682	8367
1	1647	8368
1	1621	8369
1	1602	8370
1	1594	8371
1	1603	8372
1	1629	8373
1	1662	8374
1	1712	8375
1	1767	8376
1	1827	8377
1	1871	8378
1	1909	8379
1	1909	8400
1	1905	8401
1	1890	8402
1	1856	8403
1	1815	8404
1	1765	8405
1	1714	8406
1	1670	8407
1	1629	8408
1	1592	8409
1	1573	8410
1	1574	8411
1	1592	8412
1	1620	8413
1	1660	8414
1	1706	8415
1	1757	8416
1	1817	8417
1	1866	8418
1	1904	8419
1	1934	8380
1	1936	8381
1	1916	8382
1	1885	8383
1	1845	8384
1	1791	8385
1	1737	8386
1	1686	8387
1	1636	8388
1	1605	8389
1	1592	8390
1	1592	8391
1	1609	8392
1	1644	8393
1	1686	8394
1	1736	8395
1	1789	8396
1	1841	8397
1	1877	8398
1	1904	8399
1	1929	8340
1	1922	8341
1	1907	8342
1	1873	8343
1	1835	8344
1	1782	8345
1	1724	8346
1	1675	8347
1	1634	8348
1	1598	8349
1	1580	8350
1	1580	8351
1	1593	8352
1	1626	8353
1	1670	8354
1	1719	8355
1	1769	8356
1	1819	8357
1	1858	8358
1	1884	8359
1	1931	8420
1	1934	8421
1	1910	8422
1	1882	8423
1	1849	8424
1	1791	8425
1	1736	8426
1	1686	8427
1	1636	8428
1	1598	8429
1	1574	8430
1	1568	8431
1	1574	8432
1	1596	8433
1	1631	8434
1	1674	8435
1	1728	8436
1	1790	8437
1	1841	8438
1	1883	8439
1	1904	8440
1	1908	8441
1	1893	8442
1	1868	8443
1	1830	8444
1	1773	8445
1	1733	8446
1	1688	8447
1	1650	8448
1	1623	8449
1	1618	8450
1	1618	8451
1	1634	8452
1	1656	8453
1	1685	8454
1	1723	8455
1	1765	8456
1	1816	8457
1	1849	8458
1	1869	8459
1	1867	8460
1	1855	8461
1	1834	8462
1	1800	8463
1	1764	8464
1	1733	8465
1	1688	8466
1	1654	8467
1	1625	8468
1	1600	8469
1	1589	8470
1	1594	8471
1	1609	8472
1	1641	8473
1	1680	8474
1	1718	8475
1	1762	8476
1	1809	8477
1	1845	8478
1	1873	8479
1	1948	8500
1	1948	8501
1	1934	8502
1	1901	8503
1	1861	8504
1	1803	8505
1	1748	8506
1	1697	8507
1	1647	8508
1	1606	8509
1	1582	8510
1	1571	8511
1	1573	8512
1	1594	8513
1	1625	8514
1	1674	8515
1	1737	8516
1	1799	8517
1	1859	8518
1	1906	8519
1	1895	8480
1	1893	8481
1	1868	8482
1	1843	8483
1	1795	8484
1	1744	8485
1	1693	8486
1	1648	8487
1	1612	8488
1	1589	8489
1	1571	8490
1	1570	8491
1	1584	8492
1	1611	8493
1	1652	8494
1	1712	8495
1	1769	8496
1	1831	8497
1	1887	8498
1	1926	8499
1	1879	8540
1	1869	8541
1	1854	8542
1	1824	8543
1	1769	8544
1	1712	8545
1	1649	8546
1	1598	8547
1	1554	8548
1	1520	8549
1	1499	8550
1	1503	8551
1	1521	8552
1	1554	8553
1	1595	8554
1	1657	8555
1	1718	8556
1	1773	8557
1	1826	8558
1	1857	8559
1	1926	8520
1	1931	8521
1	1919	8522
1	1888	8523
1	1849	8524
1	1793	8525
1	1741	8526
1	1688	8527
1	1634	8528
1	1603	8529
1	1580	8530
1	1571	8531
1	1577	8532
1	1594	8533
1	1630	8534
1	1673	8535
1	1729	8536
1	1785	8537
1	1835	8538
1	1867	8539
1	1878	8580
1	1872	8581
1	1856	8582
1	1821	8583
1	1772	8584
1	1723	8585
1	1661	8586
1	1607	8587
1	1556	8588
1	1517	8589
1	1495	8590
1	1493	8591
1	1505	8592
1	1534	8593
1	1572	8594
1	1620	8595
1	1674	8596
1	1736	8597
1	1791	8598
1	1834	8599
1	1869	8560
1	1864	8561
1	1843	8562
1	1813	8563
1	1769	8564
1	1719	8565
1	1673	8566
1	1631	8567
1	1587	8568
1	1555	8569
1	1539	8570
1	1536	8571
1	1545	8572
1	1573	8573
1	1612	8574
1	1663	8575
1	1723	8576
1	1776	8577
1	1830	8578
1	1865	8579
1	1863	8600
1	1869	8601
1	1856	8602
1	1829	8603
1	1787	8604
1	1737	8605
1	1683	8606
1	1631	8607
1	1581	8608
1	1544	8609
1	1510	8610
1	1502	8611
1	1506	8612
1	1527	8613
1	1556	8614
1	1607	8615
1	1659	8616
1	1712	8617
1	1762	8618
1	1796	8619
1	1818	8620
1	1818	8621
1	1794	8622
1	1764	8623
1	1726	8624
1	1682	8625
1	1634	8626
1	1587	8627
1	1550	8628
1	1520	8629
1	1498	8630
1	1485	8631
1	1500	8632
1	1523	8633
1	1568	8634
1	1618	8635
1	1683	8636
1	1751	8637
1	1817	8638
1	1869	8639
1	1917	8640
1	1940	8641
1	1961	8642
1	1965	8643
1	1962	8644
1	1956	8645
1	1936	8646
1	1922	8647
1	1917	8648
1	1922	8649
1	1944	8650
1	1974	8651
1	2018	8652
1	2071	8653
1	2135	8654
1	2210	8655
1	2288	8656
1	2372	8657
1	2454	8658
1	2513	8659
1	2556	8660
1	2572	8661
1	2571	8662
1	2548	8663
1	2515	8664
1	2467	8665
1	2396	8666
1	2320	8667
1	2236	8668
1	2145	8669
1	2053	8670
1	1986	8671
1	1922	8672
1	1878	8673
1	1847	8674
1	1843	8675
1	1843	8676
1	1845	8677
1	1852	8678
1	1848	8679
1	1841	8700
1	1834	8701
1	1812	8702
1	1769	8703
1	1724	8704
1	1675	8705
1	1612	8706
1	1557	8707
1	1513	8708
1	1478	8709
1	1466	8710
1	1472	8711
1	1490	8712
1	1529	8713
1	1580	8714
1	1642	8715
1	1696	8716
1	1749	8717
1	1793	8718
1	1832	8719
1	1837	8680
1	1817	8681
1	1775	8682
1	1736	8683
1	1690	8684
1	1639	8685
1	1582	8686
1	1533	8687
1	1494	8688
1	1466	8689
1	1463	8690
1	1471	8691
1	1489	8692
1	1517	8693
1	1555	8694
1	1607	8695
1	1668	8696
1	1728	8697
1	1782	8698
1	1823	8699
1	1851	8720
1	1845	8721
1	1817	8722
1	1782	8723
1	1745	8724
1	1691	8725
1	1638	8726
1	1587	8727
1	1542	8728
1	1503	8729
1	1476	8730
1	1467	8731
1	1474	8732
1	1491	8733
1	1525	8734
1	1570	8735
1	1620	8736
1	1688	8737
1	1742	8738
1	1791	8739
1	1818	8740
1	1823	8741
1	1809	8742
1	1778	8743
1	1739	8744
1	1677	8745
1	1631	8746
1	1581	8747
1	1543	8748
1	1514	8749
1	1503	8750
1	1499	8751
1	1507	8752
1	1533	8753
1	1574	8754
1	1623	8755
1	1683	8756
1	1737	8757
1	1782	8758
1	1816	8759
1	1823	8760
1	1819	8761
1	1809	8762
1	1780	8763
1	1749	8764
1	1710	8765
1	1657	8766
1	1605	8767
1	1559	8768
1	1529	8769
1	1512	8770
1	1508	8771
1	1520	8772
1	1541	8773
1	1573	8774
1	1611	8775
1	1661	8776
1	1714	8777
1	1764	8778
1	1811	8779
1	1843	8780
1	1856	8781
1	1843	8782
1	1821	8783
1	1781	8784
1	1734	8785
1	1676	8786
1	1620	8787
1	1568	8788
1	1529	8789
1	1494	8790
1	1485	8791
1	1489	8792
1	1511	8793
1	1546	8794
1	1601	8795
1	1660	8796
1	1723	8797
1	1775	8798
1	1818	8799
1	1843	8800
1	1848	8801
1	1838	8802
1	1816	8803
1	1780	8804
1	1728	8805
1	1679	8806
1	1634	8807
1	1592	8808
1	1555	8809
1	1542	8810
1	1543	8811
1	1555	8812
1	1580	8813
1	1614	8814
1	1660	8815
1	1711	8816
1	1764	8817
1	1815	8818
1	1854	8819
1	1873	8820
1	1877	8821
1	1867	8822
1	1838	8823
1	1796	8824
1	1747	8825
1	1706	8826
1	1661	8827
1	1619	8828
1	1592	8829
1	1569	8830
1	1557	8831
1	1566	8832
1	1589	8833
1	1621	8834
1	1664	8835
1	1712	8836
1	1765	8837
1	1817	8838
1	1855	8839
1	1878	8840
1	1877	8841
1	1871	8842
1	1851	8843
1	1816	8844
1	1766	8845
1	1720	8846
1	1674	8847
1	1634	8848
1	1602	8849
1	1579	8850
1	1576	8851
1	1587	8852
1	1612	8853
1	1651	8854
1	1710	8855
1	1765	8856
1	1826	8857
1	1873	8858
1	1913	8859
1	1935	8860
1	1940	8861
1	1926	8862
1	1899	8863
1	1863	8864
1	1803	8865
1	1754	8866
1	1705	8867
1	1663	8868
1	1634	8869
1	1625	8870
1	1620	8871
1	1631	8872
1	1655	8873
1	1686	8874
1	1731	8875
1	1785	8876
1	1845	8877
1	1899	8878
1	1940	8879
1	1957	8880
1	1962	8881
1	1949	8882
1	1922	8883
1	1888	8884
1	1853	8885
1	1808	8886
1	1759	8887
1	1719	8888
1	1687	8889
1	1668	8890
1	1661	8891
1	1668	8892
1	1688	8893
1	1712	8894
1	1749	8895
1	1791	8896
1	1842	8897
1	1882	8898
1	1913	8899
1	1933	8900
1	1931	8901
1	1917	8902
1	1883	8903
1	1842	8904
1	1786	8905
1	1736	8906
1	1691	8907
1	1657	8908
1	1630	8909
1	1612	8910
1	1617	8911
1	1635	8912
1	1664	8913
1	1700	8914
1	1749	8915
1	1814	8916
1	1862	8917
1	1904	8918
1	1927	8919
1	1934	8920
1	1922	8921
1	1888	8922
1	1851	8923
1	1803	8924
1	1756	8925
1	1712	8926
1	1667	8927
1	1626	8928
1	1593	8929
1	1568	8930
1	1562	8931
1	1566	8932
1	1581	8933
1	1611	8934
1	1652	8935
1	1698	8936
1	1746	8937
1	1787	8938
1	1818	8939
1	1823	8940
1	1819	8941
1	1799	8942
1	1764	8943
1	1718	8944
1	1678	8945
1	1630	8946
1	1581	8947
1	1538	8948
1	1502	8949
1	1476	8950
1	1473	8951
1	1476	8952
1	1500	8953
1	1533	8954
1	1574	8955
1	1608	8956
1	1651	8957
1	1688	8958
1	1714	8959
1	1736	8960
1	1728	8961
1	1704	8962
1	1671	8963
1	1634	8964
1	1594	8965
1	1555	8966
1	1522	8967
1	1490	8968
1	1465	8969
1	1449	8970
1	1450	8971
1	1463	8972
1	1488	8973
1	1517	8974
1	1557	8975
1	1606	8976
1	1647	8977
1	1686	8978
1	1712	8979
1	1724	8980
1	1719	8981
1	1701	8982
1	1664	8983
1	1623	8984
1	1582	8985
1	1546	8986
1	1513	8987
1	1485	8988
1	1459	8989
1	1445	8990
1	1440	8991
1	1446	8992
1	1463	8993
1	1490	8994
1	1526	8995
1	1567	8996
1	1608	8997
1	1648	8998
1	1682	8999
1	1700	9000
1	1701	9001
1	1686	9002
1	1656	9003
1	1615	9004
1	1580	9005
1	1533	9006
1	1494	9007
1	1463	9008
1	1437	9009
1	1425	9010
1	1427	9011
1	1440	9012
1	1469	9013
1	1515	9014
1	1577	9015
1	1634	9016
1	1694	9017
1	1744	9018
1	1780	9019
1	1811	9020
1	1800	9021
1	1765	9022
1	1728	9023
1	1679	9024
1	1616	9025
1	1554	9026
1	1499	9027
1	1450	9028
1	1415	9029
1	1395	9030
1	1392	9031
1	1400	9032
1	1424	9033
1	1462	9034
1	1510	9035
1	1569	9036
1	1625	9037
1	1677	9038
1	1730	9039
1	1763	9040
1	1770	9041
1	1764	9042
1	1738	9043
1	1701	9044
1	1643	9045
1	1598	9046
1	1555	9047
1	1514	9048
1	1480	9049
1	1466	9050
1	1458	9051
1	1467	9052
1	1487	9053
1	1518	9054
1	1556	9055
1	1606	9056
1	1652	9057
1	1700	9058
1	1738	9059
1	1742	9080
1	1742	9081
1	1726	9082
1	1701	9083
1	1668	9084
1	1634	9085
1	1593	9086
1	1553	9087
1	1510	9088
1	1476	9089
1	1443	9090
1	1438	9091
1	1446	9092
1	1465	9093
1	1495	9094
1	1544	9095
1	1598	9096
1	1657	9097
1	1712	9098
1	1754	9099
1	1759	9060
1	1764	9061
1	1755	9062
1	1729	9063
1	1687	9064
1	1646	9065
1	1594	9066
1	1544	9067
1	1499	9068
1	1461	9069
1	1437	9070
1	1436	9071
1	1448	9072
1	1475	9073
1	1512	9074
1	1555	9075
1	1600	9076
1	1647	9077
1	1689	9078
1	1723	9079
1	1782	9100
1	1790	9101
1	1779	9102
1	1752	9103
1	1716	9104
1	1665	9105
1	1618	9106
1	1572	9107
1	1531	9108
1	1498	9109
1	1476	9110
1	1466	9111
1	1465	9112
1	1482	9113
1	1512	9114
1	1555	9115
1	1600	9116
1	1650	9117
1	1694	9118
1	1730	9119
1	1751	9120
1	1754	9121
1	1744	9122
1	1717	9123
1	1685	9124
1	1638	9125
1	1598	9126
1	1557	9127
1	1513	9128
1	1485	9129
1	1459	9130
1	1450	9131
1	1454	9132
1	1476	9133
1	1508	9134
1	1555	9135
1	1602	9136
1	1655	9137
1	1704	9138
1	1740	9139
1	1766	9140
1	1774	9141
1	1764	9142
1	1742	9143
1	1706	9144
1	1661	9145
1	1615	9146
1	1574	9147
1	1534	9148
1	1505	9149
1	1484	9150
1	1481	9151
1	1487	9152
1	1506	9153
1	1540	9154
1	1586	9155
1	1638	9156
1	1686	9157
1	1731	9158
1	1764	9159
1	1783	9160
1	1788	9161
1	1776	9162
1	1752	9163
1	1723	9164
1	1674	9165
1	1634	9166
1	1593	9167
1	1554	9168
1	1521	9169
1	1503	9170
1	1497	9171
1	1503	9172
1	1521	9173
1	1553	9174
1	1594	9175
1	1647	9176
1	1698	9177
1	1743	9178
1	1778	9179
1	1791	9180
1	1792	9181
1	1778	9182
1	1747	9183
1	1706	9184
1	1661	9185
1	1612	9186
1	1568	9187
1	1528	9188
1	1490	9189
1	1467	9190
1	1461	9191
1	1469	9192
1	1495	9193
1	1540	9194
1	1593	9195
1	1643	9196
1	1695	9197
1	1738	9198
1	1775	9199
1	1801	9200
1	1801	9201
1	1782	9202
1	1747	9203
1	1704	9204
1	1659	9205
1	1607	9206
1	1557	9207
1	1517	9208
1	1485	9209
1	1464	9210
1	1465	9211
1	1481	9212
1	1513	9213
1	1556	9214
1	1616	9215
1	1678	9216
1	1733	9217
1	1776	9218
1	1808	9219
1	1818	9220
1	1809	9221
1	1776	9222
1	1744	9223
1	1700	9224
1	1656	9225
1	1607	9226
1	1568	9227
1	1529	9228
1	1502	9229
1	1486	9230
1	1490	9231
1	1502	9232
1	1518	9233
1	1553	9234
1	1595	9235
1	1654	9236
1	1709	9237
1	1755	9238
1	1791	9239
1	1814	9240
1	1813	9241
1	1793	9242
1	1764	9243
1	1727	9244
1	1687	9245
1	1638	9246
1	1593	9247
1	1550	9248
1	1509	9249
1	1481	9250
1	1472	9251
1	1479	9252
1	1503	9253
1	1544	9254
1	1597	9255
1	1648	9256
1	1708	9257
1	1759	9258
1	1796	9259
1	1832	9260
1	1839	9261
1	1827	9262
1	1795	9263
1	1761	9264
1	1716	9265
1	1664	9266
1	1609	9267
1	1562	9268
1	1527	9269
1	1498	9270
1	1487	9271
1	1489	9272
1	1503	9273
1	1525	9274
1	1566	9275
1	1616	9276
1	1665	9277
1	1715	9278
1	1754	9279
1	1777	9280
1	1790	9281
1	1790	9282
1	1772	9283
1	1741	9284
1	1703	9285
1	1656	9286
1	1607	9287
1	1562	9288
1	1525	9289
1	1502	9290
1	1490	9291
1	1495	9292
1	1516	9293
1	1553	9294
1	1598	9295
1	1657	9296
1	1712	9297
1	1766	9298
1	1814	9299
1	1833	9300
1	1838	9301
1	1824	9302
1	1792	9303
1	1755	9304
1	1714	9305
1	1661	9306
1	1608	9307
1	1562	9308
1	1526	9309
1	1499	9310
1	1488	9311
1	1493	9312
1	1515	9313
1	1546	9314
1	1589	9315
1	1636	9316
1	1697	9317
1	1749	9318
1	1790	9319
1	1822	9320
1	1826	9321
1	1800	9322
1	1782	9323
1	1755	9324
1	1711	9325
1	1661	9326
1	1616	9327
1	1573	9328
1	1537	9329
1	1510	9330
1	1500	9331
1	1503	9332
1	1526	9333
1	1556	9334
1	1604	9335
1	1660	9336
1	1712	9337
1	1764	9338
1	1817	9339
1	1840	9340
1	1841	9341
1	1819	9342
1	1782	9343
1	1737	9344
1	1673	9345
1	1634	9346
1	1594	9347
1	1560	9348
1	1534	9349
1	1524	9350
1	1520	9351
1	1529	9352
1	1553	9353
1	1586	9354
1	1634	9355
1	1692	9356
1	1743	9357
1	1791	9358
1	1823	9359
1	1826	9360
1	1819	9361
1	1808	9362
1	1782	9363
1	1752	9364
1	1722	9365
1	1678	9366
1	1633	9367
1	1585	9368
1	1548	9369
1	1528	9370
1	1525	9371
1	1539	9372
1	1568	9373
1	1605	9374
1	1660	9375
1	1713	9376
1	1775	9377
1	1835	9378
1	1872	9379
1	1899	9380
1	1900	9381
1	1890	9382
1	1854	9383
1	1825	9384
1	1778	9385
1	1730	9386
1	1682	9387
1	1633	9388
1	1592	9389
1	1562	9390
1	1559	9391
1	1568	9392
1	1590	9393
1	1619	9394
1	1668	9395
1	1724	9396
1	1778	9397
1	1834	9398
1	1869	9399
1	1888	9400
1	1886	9401
1	1868	9402
1	1831	9403
1	1778	9404
1	1708	9405
1	1652	9406
1	1598	9407
1	1548	9408
1	1504	9409
1	1479	9410
1	1469	9411
1	1472	9412
1	1489	9413
1	1527	9414
1	1575	9415
1	1634	9416
1	1690	9417
1	1742	9418
1	1782	9419
1	1811	9420
1	1816	9421
1	1803	9422
1	1778	9423
1	1743	9424
1	1700	9425
1	1660	9426
1	1611	9427
1	1566	9428
1	1540	9429
1	1524	9430
1	1523	9431
1	1537	9432
1	1567	9433
1	1607	9434
1	1657	9435
1	1701	9436
1	1751	9437
1	1793	9438
1	1829	9439
1	1844	9440
1	1843	9441
1	1823	9442
1	1795	9443
1	1760	9444
1	1714	9445
1	1663	9446
1	1610	9447
1	1562	9448
1	1521	9449
1	1485	9450
1	1476	9451
1	1480	9452
1	1501	9453
1	1533	9454
1	1593	9455
1	1658	9456
1	1721	9457
1	1782	9458
1	1831	9459
1	1850	9480
1	1855	9481
1	1843	9482
1	1811	9483
1	1760	9484
1	1708	9485
1	1647	9486
1	1593	9487
1	1544	9488
1	1501	9489
1	1474	9490
1	1463	9491
1	1466	9492
1	1490	9493
1	1529	9494
1	1592	9495
1	1647	9496
1	1723	9497
1	1792	9498
1	1857	9499
1	1856	9460
1	1863	9461
1	1846	9462
1	1817	9463
1	1766	9464
1	1703	9465
1	1656	9466
1	1604	9467
1	1559	9468
1	1521	9469
1	1502	9470
1	1489	9471
1	1490	9472
1	1507	9473
1	1542	9474
1	1587	9475
1	1647	9476
1	1711	9477
1	1770	9478
1	1824	9479
1	1911	9500
1	1939	9501
1	1955	9502
1	1957	9503
1	1949	9504
1	1937	9505
1	1921	9506
1	1908	9507
1	1898	9508
1	1895	9509
1	1901	9510
1	1917	9511
1	1943	9512
1	1979	9513
1	2028	9514
1	2102	9515
1	2179	9516
1	2264	9517
1	2341	9518
1	2408	9519
1	2456	9520
1	2485	9521
1	2484	9522
1	2467	9523
1	2430	9524
1	2382	9525
1	2318	9526
1	2255	9527
1	2176	9528
1	2093	9529
1	2005	9530
1	1929	9531
1	1859	9532
1	1809	9533
1	1777	9534
1	1763	9535
1	1766	9536
1	1785	9537
1	1800	9538
1	1812	9539
1	1793	9540
1	1782	9541
1	1755	9542
1	1726	9543
1	1692	9544
1	1661	9545
1	1625	9546
1	1590	9547
1	1553	9548
1	1521	9549
1	1502	9550
1	1499	9551
1	1508	9552
1	1531	9553
1	1566	9554
1	1620	9555
1	1670	9556
1	1731	9557
1	1787	9558
1	1831	9559
1	1862	9560
1	1865	9561
1	1843	9562
1	1803	9563
1	1762	9564
1	1715	9565
1	1667	9566
1	1622	9567
1	1587	9568
1	1557	9569
1	1530	9570
1	1521	9571
1	1519	9572
1	1534	9573
1	1562	9574
1	1611	9575
1	1662	9576
1	1715	9577
1	1767	9578
1	1817	9579
1	1857	9600
1	1862	9601
1	1854	9602
1	1823	9603
1	1783	9604
1	1743	9605
1	1691	9606
1	1646	9607
1	1605	9608
1	1568	9609
1	1546	9610
1	1536	9611
1	1540	9612
1	1555	9613
1	1582	9614
1	1626	9615
1	1668	9616
1	1719	9617
1	1764	9618
1	1798	9619
1	1842	9580
1	1847	9581
1	1839	9582
1	1803	9583
1	1766	9584
1	1725	9585
1	1676	9586
1	1629	9587
1	1582	9588
1	1542	9589
1	1518	9590
1	1505	9591
1	1512	9592
1	1534	9593
1	1571	9594
1	1620	9595
1	1683	9596
1	1741	9597
1	1792	9598
1	1841	9599
1	1828	9620
1	1832	9621
1	1822	9622
1	1789	9623
1	1761	9624
1	1700	9625
1	1660	9626
1	1608	9627
1	1559	9628
1	1529	9629
1	1510	9630
1	1503	9631
1	1514	9632
1	1536	9633
1	1571	9634
1	1615	9635
1	1670	9636
1	1723	9637
1	1772	9638
1	1822	9639
1	1845	9640
1	1853	9641
1	1843	9642
1	1817	9643
1	1778	9644
1	1724	9645
1	1692	9646
1	1657	9647
1	1621	9648
1	1592	9649
1	1579	9650
1	1573	9651
1	1579	9652
1	1598	9653
1	1631	9654
1	1675	9655
1	1730	9656
1	1788	9657
1	1840	9658
1	1872	9659
1	1893	9660
1	1890	9661
1	1874	9662
1	1845	9663
1	1808	9664
1	1765	9665
1	1724	9666
1	1685	9667
1	1646	9668
1	1608	9669
1	1581	9670
1	1569	9671
1	1571	9672
1	1594	9673
1	1628	9674
1	1670	9675
1	1713	9676
1	1761	9677
1	1803	9678
1	1841	9679
1	1862	9680
1	1862	9681
1	1845	9682
1	1818	9683
1	1778	9684
1	1734	9685
1	1686	9686
1	1644	9687
1	1609	9688
1	1589	9689
1	1577	9690
1	1580	9691
1	1594	9692
1	1623	9693
1	1661	9694
1	1713	9695
1	1767	9696
1	1827	9697
1	1877	9698
1	1910	9699
1	1933	9700
1	1942	9701
1	1934	9702
1	1913	9703
1	1883	9704
1	1832	9705
1	1787	9706
1	1746	9707
1	1702	9708
1	1664	9709
1	1646	9710
1	1633	9711
1	1629	9712
1	1639	9713
1	1669	9714
1	1716	9715
1	1778	9716
1	1844	9717
1	1897	9718
1	1939	9719
1	1953	9720
1	1953	9721
1	1940	9722
1	1917	9723
1	1888	9724
1	1843	9725
1	1808	9726
1	1760	9727
1	1712	9728
1	1683	9729
1	1652	9730
1	1646	9731
1	1652	9732
1	1672	9733
1	1698	9734
1	1738	9735
1	1789	9736
1	1845	9737
1	1895	9738
1	1934	9739
1	1955	9740
1	1962	9741
1	1960	9742
1	1948	9743
1	1920	9744
1	1885	9745
1	1845	9746
1	1809	9747
1	1765	9748
1	1733	9749
1	1691	9750
1	1680	9751
1	1672	9752
1	1681	9753
1	1700	9754
1	1740	9755
1	1791	9756
1	1846	9757
1	1892	9758
1	1926	9759
1	1953	9760
1	1964	9761
1	1961	9762
1	1943	9763
1	1909	9764
1	1855	9765
1	1815	9766
1	1764	9767
1	1715	9768
1	1677	9769
1	1660	9770
1	1657	9771
1	1671	9772
1	1700	9773
1	1738	9774
1	1785	9775
1	1843	9776
1	1895	9777
1	1939	9778
1	1978	9779
1	1991	9780
1	1985	9781
1	1961	9782
1	1917	9783
1	1862	9784
1	1803	9785
1	1738	9786
1	1674	9787
1	1623	9788
1	1579	9789
1	1548	9790
1	1537	9791
1	1542	9792
1	1571	9793
1	1611	9794
1	1668	9795
1	1713	9796
1	1764	9797
1	1814	9798
1	1843	9799
1	1868	9800
1	1869	9801
1	1854	9802
1	1821	9803
1	1778	9804
1	1729	9805
1	1675	9806
1	1624	9807
1	1572	9808
1	1524	9809
1	1477	9810
1	1463	9811
1	1462	9812
1	1478	9813
1	1513	9814
1	1568	9815
1	1623	9816
1	1680	9817
1	1731	9818
1	1772	9819
1	1770	9840
1	1772	9841
1	1760	9842
1	1730	9843
1	1686	9844
1	1643	9845
1	1592	9846
1	1536	9847
1	1485	9848
1	1443	9849
1	1418	9850
1	1409	9851
1	1417	9852
1	1438	9853
1	1474	9854
1	1515	9855
1	1555	9856
1	1607	9857
1	1652	9858
1	1686	9859
1	1796	9820
1	1803	9821
1	1782	9822
1	1757	9823
1	1715	9824
1	1670	9825
1	1618	9826
1	1571	9827
1	1529	9828
1	1490	9829
1	1460	9830
1	1450	9831
1	1450	9832
1	1471	9833
1	1505	9834
1	1551	9835
1	1604	9836
1	1658	9837
1	1710	9838
1	1749	9839
1	1719	9860
1	1729	9861
1	1724	9862
1	1710	9863
1	1683	9864
1	1644	9865
1	1598	9866
1	1555	9867
1	1511	9868
1	1476	9869
1	1442	9870
1	1437	9871
1	1438	9872
1	1456	9873
1	1485	9874
1	1529	9875
1	1573	9876
1	1624	9877
1	1670	9878
1	1712	9879
1	1739	9880
1	1749	9881
1	1743	9882
1	1724	9883
1	1691	9884
1	1649	9885
1	1602	9886
1	1554	9887
1	1503	9888
1	1458	9889
1	1430	9890
1	1424	9891
1	1431	9892
1	1456	9893
1	1492	9894
1	1543	9895
1	1605	9896
1	1668	9897
1	1728	9898
1	1770	9899
1	1791	9900
1	1789	9901
1	1767	9902
1	1733	9903
1	1687	9904
1	1644	9905
1	1596	9906
1	1552	9907
1	1512	9908
1	1477	9909
1	1455	9910
1	1453	9911
1	1463	9912
1	1490	9913
1	1526	9914
1	1574	9915
1	1611	9916
1	1661	9917
1	1710	9918
1	1744	9919
1	1764	9920
1	1769	9921
1	1757	9922
1	1725	9923
1	1698	9924
1	1642	9925
1	1607	9926
1	1561	9927
1	1524	9928
1	1490	9929
1	1469	9930
1	1463	9931
1	1471	9932
1	1494	9933
1	1530	9934
1	1574	9935
1	1631	9936
1	1678	9937
1	1718	9938
1	1754	9939
1	1766	9940
1	1762	9941
1	1741	9942
1	1711	9943
1	1672	9944
1	1611	9945
1	1581	9946
1	1541	9947
1	1508	9948
1	1481	9949
1	1466	9950
1	1467	9951
1	1479	9952
1	1505	9953
1	1541	9954
1	1581	9955
1	1631	9956
1	1679	9957
1	1724	9958
1	1761	9959
1	1775	9960
1	1772	9961
1	1757	9962
1	1726	9963
1	1689	9964
1	1657	9965
1	1618	9966
1	1582	9967
1	1546	9968
1	1521	9969
1	1503	9970
1	1494	9971
1	1503	9972
1	1521	9973
1	1548	9974
1	1585	9975
1	1623	9976
1	1670	9977
1	1714	9978
1	1749	9979
1	1764	9980
1	1772	9981
1	1756	9982
1	1728	9983
1	1692	9984
1	1652	9985
1	1609	9986
1	1568	9987
1	1530	9988
1	1499	9989
1	1473	9990
1	1467	9991
1	1476	9992
1	1495	9993
1	1533	9994
1	1585	9995
1	1655	9996
1	1711	9997
1	1762	9998
1	1795	9999
1	1816	10000
1	1809	10001
1	1782	10002
1	1746	10003
1	1704	10004
1	1644	10005
1	1602	10006
1	1556	10007
1	1518	10008
1	1488	10009
1	1473	10010
1	1475	10011
1	1487	10012
1	1516	10013
1	1557	10014
1	1618	10015
1	1683	10016
1	1744	10017
1	1795	10018
1	1836	10019
1	1850	10020
1	1844	10021
1	1824	10022
1	1787	10023
1	1738	10024
1	1682	10025
1	1625	10026
1	1568	10027
1	1517	10028
1	1485	10029
1	1459	10030
1	1451	10031
1	1456	10032
1	1479	10033
1	1517	10034
1	1571	10035
1	1619	10036
1	1683	10037
1	1738	10038
1	1778	10039
1	1798	10040
1	1803	10041
1	1785	10042
1	1757	10043
1	1715	10044
1	1670	10045
1	1620	10046
1	1575	10047
1	1535	10048
1	1505	10049
1	1478	10050
1	1476	10051
1	1480	10052
1	1503	10053
1	1539	10054
1	1594	10055
1	1649	10056
1	1707	10057
1	1757	10058
1	1796	10059
1	1826	10060
1	1837	10061
1	1825	10062
1	1798	10063
1	1763	10064
1	1705	10065
1	1659	10066
1	1607	10067
1	1564	10068
1	1527	10069
1	1503	10070
1	1494	10071
1	1495	10072
1	1517	10073
1	1551	10074
1	1593	10075
1	1647	10076
1	1709	10077
1	1762	10078
1	1808	10079
1	1830	10080
1	1826	10081
1	1803	10082
1	1770	10083
1	1729	10084
1	1680	10085
1	1631	10086
1	1580	10087
1	1537	10088
1	1503	10089
1	1490	10090
1	1492	10091
1	1508	10092
1	1540	10093
1	1581	10094
1	1634	10095
1	1685	10096
1	1739	10097
1	1791	10098
1	1832	10099
1	1852	10100
1	1854	10101
1	1834	10102
1	1791	10103
1	1750	10104
1	1697	10105
1	1645	10106
1	1594	10107
1	1548	10108
1	1512	10109
1	1490	10110
1	1478	10111
1	1490	10112
1	1516	10113
1	1556	10114
1	1607	10115
1	1671	10116
1	1728	10117
1	1778	10118
1	1817	10119
1	1835	10120
1	1826	10121
1	1790	10122
1	1753	10123
1	1706	10124
1	1647	10125
1	1584	10126
1	1529	10127
1	1478	10128
1	1438	10129
1	1411	10130
1	1406	10131
1	1415	10132
1	1445	10133
1	1497	10134
1	1555	10135
1	1623	10136
1	1687	10137
1	1746	10138
1	1791	10139
1	1826	10140
1	1829	10141
1	1818	10142
1	1792	10143
1	1760	10144
1	1715	10145
1	1673	10146
1	1618	10147
1	1566	10148
1	1521	10149
1	1488	10150
1	1476	10151
1	1476	10152
1	1497	10153
1	1529	10154
1	1571	10155
1	1615	10156
1	1662	10157
1	1710	10158
1	1746	10159
1	1765	10160
1	1780	10161
1	1773	10162
1	1751	10163
1	1718	10164
1	1678	10165
1	1634	10166
1	1585	10167
