#Date:= 2024-10-01T14:54:14.517305
#Sampling Rate(Hz):= 1000
#Labels:= LOD	ECG	TS
1	2115	40
1	2157	41
1	2197	42
1	2237	43
1	2275	44
1	2312	45
1	2341	46
1	2368	47
1	2393	48
1	2395	49
1	2381	50
1	2356	51
1	2315	52
1	2269	53
1	2206	54
1	2132	55
1	2060	56
1	1982	57
1	1901	58
1	1825	59
1	1371	20
1	1377	21
1	1409	22
1	1449	23
1	1503	24
1	1555	25
1	1608	26
1	1669	27
1	1731	28
1	1791	29
1	1852	30
1	1896	31
1	1936	32
1	1971	33
1	1994	34
1	2011	35
1	2026	36
1	2043	37
1	2061	38
1	2083	39
1	1747	60
1	1683	61
1	1621	62
1	1573	63
1	1535	64
1	1508	65
1	1490	66
1	1482	67
1	1475	68
1	1469	69
1	1463	70
1	1450	71
1	1442	72
1	1438	73
1	1436	74
1	1424	75
1	1417	76
1	1409	77
1	1417	78
1	1436	79
1	1430	100
1	1425	101
1	1430	102
1	1443	103
1	1458	104
1	1477	105
1	1503	106
1	1529	107
1	1554	108
1	1577	109
1	1593	110
1	1607	111
1	1620	112
1	1623	113
1	1621	114
1	1618	115
1	1609	116
1	1602	117
1	1593	118
1	1585	119
1	1456	100
1	1477	101
1	1500	102
1	1526	103
1	1549	104
1	1572	105
1	1596	106
1	1608	107
1	1610	108
1	1603	109
1	1589	110
1	1569	111
1	1555	112
1	1548	113
1	1537	114
1	1525	115
1	1506	116
1	1485	117
1	1463	118
1	1442	119
1	1580	120
1	1575	121
1	1572	122
1	1568	123
1	1566	124
1	1570	125
1	1572	126
1	1576	127
1	1581	128
1	1582	129
1	1581	130
1	1572	131
1	1567	132
1	1555	133
1	1543	134
1	1530	135
1	1519	136
1	1503	137
1	1494	138
1	1495	139
1	1512	140
1	1531	141
1	1551	142
1	1564	143
1	1566	144
1	1557	145
1	1551	146
1	1546	147
1	1542	148
1	1541	149
1	1544	150
1	1553	151
1	1560	152
1	1566	153
1	1571	154
1	1562	155
1	1553	156
1	1542	157
1	1535	158
1	1537	159
1	1549	160
1	1560	161
1	1571	162
1	1575	163
1	1580	164
1	1589	165
1	1603	166
1	1617	167
1	1632	168
1	1638	169
1	1643	170
1	1643	171
1	1639	172
1	1633	173
1	1615	174
1	1594	175
1	1572	176
1	1551	177
1	1531	178
1	1519	179
1	1514	180
1	1517	181
1	1529	182
1	1544	183
1	1566	184
1	1593	185
1	1622	186
1	1634	187
1	1647	188
1	1660	189
1	1670	190
1	1672	191
1	1672	192
1	1660	193
1	1649	194
1	1634	195
1	1616	196
1	1607	197
1	1607	198
1	1616	199
1	1636	200
1	1661	201
1	1692	202
1	1719	203
1	1742	204
1	1756	205
1	1769	206
1	1783	207
1	1795	208
1	1814	209
1	1811	210
1	1793	211
1	1776	212
1	1755	213
1	1736	214
1	1716	215
1	1698	216
1	1682	217
1	1672	218
1	1670	219
1	1674	220
1	1684	221
1	1697	222
1	1718	223
1	1733	224
1	1755	225
1	1765	226
1	1787	227
1	1791	228
1	1796	229
1	1803	230
1	1813	231
1	1820	232
1	1832	233
1	1838	234
1	1843	235
1	1853	236
1	1862	237
1	1869	238
1	1880	239
1	1895	260
1	1905	261
1	1916	262
1	1919	263
1	1922	264
1	1927	265
1	1928	266
1	1924	267
1	1911	268
1	1895	269
1	1872	270
1	1850	271
1	1826	272
1	1800	273
1	1780	274
1	1764	275
1	1747	276
1	1723	277
1	1707	278
1	1702	279
1	1712	280
1	1691	281
1	1685	282
1	1684	283
1	1693	284
1	1707	285
1	1716	286
1	1737	287
1	1759	288
1	1767	289
1	1769	290
1	1769	291
1	1764	292
1	1742	293
1	1723	294
1	1698	295
1	1675	296
1	1649	297
1	1626	298
1	1612	299
1	1714	280
1	1733	281
1	1751	282
1	1774	283
1	1809	284
1	1849	285
1	1892	286
1	1927	287
1	1965	288
1	1988	289
1	2000	290
1	2007	291
1	2001	292
1	1986	293
1	1958	294
1	1920	295
1	1879	296
1	1832	297
1	1786	298
1	1743	299
1	1602	300
1	1597	301
1	1607	302
1	1618	303
1	1632	304
1	1642	305
1	1648	306
1	1660	307
1	1669	308
1	1671	309
1	1672	310
1	1661	311
1	1647	312
1	1631	313
1	1607	314
1	1584	315
1	1554	316
1	1523	317
1	1494	318
1	1476	319
1	1459	320
1	1450	321
1	1442	322
1	1448	323
1	1463	324
1	1477	325
1	1489	326
1	1502	327
1	1518	328
1	1542	329
1	1566	330
1	1583	331
1	1607	332
1	1621	333
1	1629	334
1	1628	335
1	1618	336
1	1594	337
1	1571	338
1	1548	339
1	1520	340
1	1489	341
1	1461	342
1	1440	343
1	1435	344
1	1440	345
1	1453	346
1	1475	347
1	1497	348
1	1524	349
1	1545	350
1	1561	351
1	1572	352
1	1577	353
1	1580	354
1	1582	355
1	1580	356
1	1570	357
1	1568	358
1	1561	359
1	1552	360
1	1547	361
1	1552	362
1	1553	363
1	1549	364
1	1546	365
1	1544	366
1	1542	367
1	1540	368
1	1538	369
1	1536	370
1	1538	371
1	1538	372
1	1538	373
1	1534	374
1	1531	375
1	1527	376
1	1513	377
1	1502	378
1	1492	379
1	1491	380
1	1491	381
1	1497	382
1	1503	383
1	1522	384
1	1546	385
1	1574	386
1	1605	387
1	1634	388
1	1651	389
1	1654	390
1	1651	391
1	1638	392
1	1616	393
1	1593	394
1	1563	395
1	1538	396
1	1517	397
1	1502	398
1	1491	399
1	1488	400
1	1488	401
1	1487	402
1	1485	403
1	1493	404
1	1516	405
1	1546	406
1	1579	407
1	1607	408
1	1622	409
1	1636	410
1	1644	411
1	1639	412
1	1629	413
1	1620	414
1	1616	415
1	1617	416
1	1618	417
1	1625	418
1	1625	419
1	1619	420
1	1611	421
1	1606	422
1	1608	423
1	1602	424
1	1607	425
1	1607	426
1	1620	427
1	1625	428
1	1634	429
1	1621	430
1	1618	431
1	1607	432
1	1607	433
1	1602	434
1	1598	435
1	1596	436
1	1596	437
1	1589	438
1	1580	439
1	1592	480
1	1602	481
1	1621	482
1	1656	483
1	1692	484
1	1730	485
1	1756	486
1	1787	487
1	1812	488
1	1817	489
1	1801	490
1	1778	491
1	1744	492
1	1711	493
1	1677	494
1	1641	495
1	1611	496
1	1589	497
1	1567	498
1	1555	499
1	1574	460
1	1567	461
1	1562	462
1	1559	463
1	1562	464
1	1574	465
1	1581	466
1	1589	467
1	1590	468
1	1591	469
1	1596	470
1	1598	471
1	1613	472
1	1623	473
1	1626	474
1	1621	475
1	1616	476
1	1613	477
1	1607	478
1	1596	479
1	1549	500
1	1555	501
1	1569	502
1	1592	503
1	1608	504
1	1638	505
1	1668	506
1	1689	507
1	1704	508
1	1716	509
1	1714	510
1	1707	511
1	1694	512
1	1677	513
1	1660	514
1	1646	515
1	1633	516
1	1611	517
1	1591	518
1	1582	519
1	1582	460
1	1571	461
1	1563	462
1	1557	463
1	1559	464
1	1573	465
1	1584	466
1	1594	467
1	1602	468
1	1605	469
1	1598	470
1	1593	471
1	1587	472
1	1585	473
1	1590	474
1	1598	475
1	1605	476
1	1602	477
1	1595	478
1	1593	479
1	1581	520
1	1581	521
1	1587	522
1	1600	523
1	1616	524
1	1632	525
1	1649	526
1	1683	527
1	1704	528
1	1724	529
1	1736	530
1	1738	531
1	1736	532
1	1719	533
1	1699	534
1	1678	535
1	1659	536
1	1638	537
1	1625	538
1	1620	539
1	1629	540
1	1657	541
1	1689	542
1	1731	543
1	1777	544
1	1823	545
1	1857	546
1	1884	547
1	1893	548
1	1890	549
1	1877	550
1	1856	551
1	1834	552
1	1809	553
1	1773	554
1	1742	555
1	1716	556
1	1688	557
1	1657	558
1	1623	559
1	1586	560
1	1555	561
1	1534	562
1	1518	563
1	1513	564
1	1511	565
1	1518	566
1	1533	567
1	1566	568
1	1605	569
1	1644	570
1	1676	571
1	1705	572
1	1737	573
1	1764	574
1	1791	575
1	1803	576
1	1799	577
1	1783	578
1	1778	579
1	1766	580
1	1759	581
1	1747	582
1	1747	583
1	1747	584
1	1751	585
1	1755	586
1	1757	587
1	1759	588
1	1758	589
1	1752	590
1	1742	591
1	1726	592
1	1700	593
1	1675	594
1	1644	595
1	1617	596
1	1595	597
1	1582	598
1	1569	599
1	1557	600
1	1551	601
1	1546	602
1	1555	603
1	1581	604
1	1607	605
1	1634	606
1	1665	607
1	1695	608
1	1726	609
1	1761	610
1	1798	611
1	1829	612
1	1855	613
1	1866	614
1	1871	615
1	1869	616
1	1856	617
1	1840	618
1	1819	619
1	1796	620
1	1778	621
1	1759	622
1	1752	623
1	1753	624
1	1755	625
1	1764	626
1	1767	627
1	1773	628
1	1782	629
1	1782	630
1	1780	631
1	1778	632
1	1769	633
1	1759	634
1	1744	635
1	1737	636
1	1729	637
1	1712	638
1	1701	639
1	1688	640
1	1679	641
1	1668	642
1	1671	643
1	1679	644
1	1687	645
1	1697	646
1	1704	647
1	1716	648
1	1728	649
1	1737	650
1	1743	651
1	1755	652
1	1762	653
1	1764	654
1	1760	655
1	1740	656
1	1712	657
1	1690	658
1	1674	659
1	1693	700
1	1674	701
1	1660	702
1	1658	703
1	1660	704
1	1665	705
1	1674	706
1	1678	707
1	1686	708
1	1699	709
1	1711	710
1	1716	711
1	1718	712
1	1711	713
1	1701	714
1	1686	715
1	1665	716
1	1650	717
1	1639	718
1	1625	719
1	1667	700
1	1670	701
1	1678	702
1	1688	703
1	1701	704
1	1712	705
1	1721	706
1	1736	707
1	1740	708
1	1747	709
1	1752	710
1	1751	711
1	1751	712
1	1747	713
1	1738	714
1	1723	715
1	1706	716
1	1687	717
1	1665	718
1	1646	719
1	1634	700
1	1624	701
1	1620	702
1	1611	703
1	1611	704
1	1616	705
1	1617	706
1	1625	707
1	1645	708
1	1670	709
1	1706	710
1	1741	711
1	1769	712
1	1791	713
1	1809	714
1	1802	715
1	1780	716
1	1761	717
1	1741	718
1	1717	719
1	1607	720
1	1593	721
1	1580	722
1	1593	723
1	1609	724
1	1634	725
1	1665	726
1	1705	727
1	1738	728
1	1760	729
1	1768	730
1	1764	731
1	1750	732
1	1727	733
1	1705	734
1	1692	735
1	1686	736
1	1685	737
1	1682	738
1	1671	739
1	1661	740
1	1655	741
1	1650	742
1	1645	743
1	1647	744
1	1660	745
1	1678	746
1	1708	747
1	1737	748
1	1760	749
1	1773	750
1	1782	751
1	1780	752
1	1765	753
1	1744	754
1	1719	755
1	1697	756
1	1672	757
1	1647	758
1	1632	759
1	1616	760
1	1599	761
1	1580	762
1	1566	763
1	1553	764
1	1546	765
1	1554	766
1	1569	767
1	1590	768
1	1611	769
1	1639	770
1	1679	771
1	1734	772
1	1791	773
1	1856	774
1	1922	775
1	1985	776
1	2045	777
1	2107	778
1	2167	779
1	2228	780
1	2286	781
1	2336	782
1	2393	783
1	2453	784
1	2502	785
1	2536	786
1	2577	787
1	2606	788
1	2633	789
1	2643	790
1	2633	791
1	2612	792
1	2594	793
1	2559	794
1	2523	795
1	2477	796
1	2432	797
1	2375	798
1	2317	799
1	2263	800
1	2210	801
1	2158	802
1	2097	803
1	2052	804
1	2013	805
1	1975	806
1	1947	807
1	1919	808
1	1881	809
1	1843	810
1	1803	811
1	1768	812
1	1737	813
1	1708	814
1	1674	815
1	1636	816
1	1609	817
1	1587	818
1	1582	819
1	1595	820
1	1618	821
1	1647	822
1	1674	823
1	1708	824
1	1737	825
1	1760	826
1	1793	827
1	1819	828
1	1834	829
1	1840	830
1	1825	831
1	1796	832
1	1762	833
1	1720	834
1	1683	835
1	1647	836
1	1616	837
1	1592	838
1	1575	839
1	1564	840
1	1562	841
1	1568	842
1	1584	843
1	1608	844
1	1638	845
1	1670	846
1	1697	847
1	1718	848
1	1734	849
1	1746	850
1	1751	851
1	1751	852
1	1754	853
1	1752	854
1	1746	855
1	1738	856
1	1726	857
1	1706	858
1	1684	859
1	1662	860
1	1646	861
1	1634	862
1	1628	863
1	1632	864
1	1642	865
1	1660	866
1	1680	867
1	1702	868
1	1719	869
1	1734	870
1	1747	871
1	1754	872
1	1756	873
1	1754	874
1	1744	875
1	1737	876
1	1727	877
1	1715	878
1	1713	879
1	1713	880
1	1707	881
1	1697	882
1	1692	883
1	1688	884
1	1688	885
1	1690	886
1	1686	887
1	1685	888
1	1686	889
1	1686	890
1	1685	891
1	1686	892
1	1680	893
1	1677	894
1	1665	895
1	1655	896
1	1647	897
1	1649	898
1	1647	899
1	1652	900
1	1664	901
1	1688	902
1	1719	903
1	1751	904
1	1770	905
1	1778	906
1	1781	907
1	1777	908
1	1773	909
1	1765	910
1	1752	911
1	1733	912
1	1714	913
1	1693	914
1	1676	915
1	1665	916
1	1660	917
1	1656	918
1	1654	919
1	1661	920
1	1679	921
1	1696	922
1	1727	923
1	1756	924
1	1791	925
1	1828	926
1	1857	927
1	1875	928
1	1886	929
1	1881	930
1	1865	931
1	1845	932
1	1814	933
1	1772	934
1	1737	935
1	1698	936
1	1665	937
1	1634	938
1	1625	939
1	1620	940
1	1625	941
1	1638	942
1	1672	943
1	1708	944
1	1749	945
1	1786	946
1	1823	947
1	1849	948
1	1867	949
1	1874	950
1	1881	951
1	1885	952
1	1878	953
1	1873	954
1	1871	955
1	1868	956
1	1859	957
1	1852	958
1	1840	959
1	1831	960
1	1823	961
1	1811	962
1	1793	963
1	1786	964
1	1785	965
1	1778	966
1	1773	967
1	1764	968
1	1755	969
1	1751	970
1	1752	971
1	1762	972
1	1787	973
1	1809	974
1	1825	975
1	1839	976
1	1845	977
1	1856	978
1	1869	979
1	1887	980
1	1908	981
1	1931	982
1	1943	983
1	1950	984
1	1962	985
1	1972	986
1	1976	987
1	1989	988
1	1987	989
1	1981	990
1	1976	991
1	1974	992
1	1963	993
1	1949	994
1	1935	995
1	1919	996
1	1901	997
1	1880	998
1	1868	999
1	1856	1000
1	1854	1001
1	1856	1002
1	1864	1003
1	1865	1004
1	1867	1005
1	1861	1006
1	1856	1007
1	1851	1008
1	1845	1009
1	1842	1010
1	1843	1011
1	1841	1012
1	1828	1013
1	1822	1014
1	1816	1015
1	1796	1016
1	1787	1017
1	1790	1018
1	1794	1019
1	1809	1020
1	1824	1021
1	1843	1022
1	1856	1023
1	1869	1024
1	1886	1025
1	1893	1026
1	1892	1027
1	1881	1028
1	1867	1029
1	1845	1030
1	1827	1031
1	1803	1032
1	1780	1033
1	1755	1034
1	1727	1035
1	1697	1036
1	1664	1037
1	1628	1038
1	1593	1039
1	1563	1040
1	1554	1041
1	1557	1042
1	1576	1043
1	1591	1044
1	1607	1045
1	1628	1046
1	1644	1047
1	1672	1048
1	1694	1049
1	1714	1050
1	1740	1051
1	1765	1052
1	1786	1053
1	1790	1054
1	1777	1055
1	1751	1056
1	1713	1057
1	1668	1058
1	1646	1059
1	1629	1060
1	1610	1061
1	1589	1062
1	1576	1063
1	1566	1064
1	1566	1065
1	1566	1066
1	1563	1067
1	1561	1068
1	1559	1069
1	1561	1070
1	1567	1071
1	1573	1072
1	1562	1073
1	1554	1074
1	1541	1075
1	1525	1076
1	1507	1077
1	1493	1078
1	1476	1079
1	1467	1080
1	1466	1081
1	1476	1082
1	1489	1083
1	1503	1084
1	1509	1085
1	1516	1086
1	1521	1087
1	1513	1088
1	1514	1089
1	1517	1090
1	1529	1091
1	1531	1092
1	1537	1093
1	1533	1094
1	1525	1095
1	1515	1096
1	1508	1097
1	1503	1098
1	1502	1099
1	1495	1100
1	1492	1101
1	1492	1102
1	1490	1103
1	1494	1104
1	1502	1105
1	1504	1106
1	1508	1107
1	1521	1108
1	1518	1109
1	1511	1110
1	1501	1111
1	1489	1112
1	1479	1113
1	1472	1114
1	1476	1115
1	1487	1116
1	1494	1117
1	1490	1118
1	1489	1119
1	1492	1120
1	1503	1121
1	1517	1122
1	1531	1123
1	1536	1124
1	1542	1125
1	1553	1126
1	1573	1127
1	1583	1128
1	1590	1129
1	1593	1130
1	1588	1131
1	1580	1132
1	1564	1133
1	1548	1134
1	1531	1135
1	1516	1136
1	1499	1137
1	1485	1138
1	1487	1139
1	1490	1140
1	1495	1141
1	1505	1142
1	1512	1143
1	1518	1144
1	1528	1145
1	1541	1146
1	1558	1147
1	1579	1148
1	1592	1149
1	1605	1150
1	1607	1151
1	1605	1152
1	1606	1153
1	1594	1154
1	1582	1155
1	1572	1156
1	1556	1157
1	1539	1158
1	1523	1159
1	1503	1160
1	1494	1161
1	1494	1162
1	1482	1163
1	1481	1164
1	1487	1165
1	1498	1166
1	1503	1167
1	1508	1168
1	1507	1169
1	1498	1170
1	1481	1171
1	1463	1172
1	1449	1173
1	1434	1174
1	1419	1175
1	1410	1176
1	1410	1177
1	1406	1178
1	1413	1179
1	1428	1180
1	1450	1181
1	1476	1182
1	1503	1183
1	1535	1184
1	1564	1185
1	1585	1186
1	1597	1187
1	1603	1188
1	1600	1189
1	1599	1190
1	1602	1191
1	1603	1192
1	1589	1193
1	1574	1194
1	1555	1195
1	1541	1196
1	1521	1197
1	1507	1198
1	1495	1199
1	1489	1200
1	1485	1201
1	1488	1202
1	1491	1203
1	1500	1204
1	1503	1205
1	1512	1206
1	1517	1207
1	1517	1208
1	1523	1209
1	1534	1210
1	1542	1211
1	1549	1212
1	1556	1213
1	1547	1214
1	1533	1215
1	1514	1216
1	1490	1217
1	1468	1218
1	1456	1219
1	1449	1220
1	1449	1221
1	1453	1222
1	1476	1223
1	1515	1224
1	1555	1225
1	1594	1226
1	1634	1227
1	1664	1228
1	1685	1229
1	1694	1230
1	1687	1231
1	1674	1232
1	1638	1233
1	1594	1234
1	1542	1235
1	1492	1236
1	1448	1237
1	1395	1238
1	1367	1239
1	1345	1240
1	1328	1241
1	1332	1242
1	1358	1243
1	1384	1244
1	1416	1245
1	1440	1246
1	1474	1247
1	1503	1248
1	1534	1249
1	1559	1250
1	1579	1251
1	1593	1252
1	1594	1253
1	1590	1254
1	1569	1255
1	1539	1256
1	1500	1257
1	1465	1258
1	1436	1259
1	1412	1260
1	1398	1261
1	1384	1262
1	1384	1263
1	1398	1264
1	1418	1265
1	1440	1266
1	1467	1267
1	1489	1268
1	1500	1269
1	1507	1270
1	1508	1271
1	1501	1272
1	1492	1273
1	1472	1274
1	1448	1275
1	1431	1276
1	1424	1277
1	1425	1278
1	1433	1279
1	1364	1300
1	1359	1301
1	1359	1302
1	1364	1303
1	1373	1304
1	1397	1305
1	1422	1306
1	1443	1307
1	1458	1308
1	1472	1309
1	1476	1310
1	1476	1311
1	1471	1312
1	1466	1313
1	1474	1314
1	1494	1315
1	1518	1316
1	1532	1317
1	1543	1318
1	1546	1319
1	1449	1280
1	1469	1281
1	1492	1282
1	1510	1283
1	1529	1284
1	1554	1285
1	1575	1286
1	1593	1287
1	1608	1288
1	1612	1289
1	1608	1290
1	1599	1291
1	1580	1292
1	1548	1293
1	1516	1294
1	1484	1295
1	1451	1296
1	1420	1297
1	1381	1298
1	1371	1299
1	1548	1320
1	1555	1321
1	1566	1322
1	1583	1323
1	1595	1324
1	1598	1325
1	1592	1326
1	1572	1327
1	1553	1328
1	1529	1329
1	1503	1330
1	1484	1331
1	1458	1332
1	1431	1333
1	1404	1334
1	1376	1335
1	1353	1336
1	1338	1337
1	1319	1338
1	1304	1339
1	1296	1340
1	1297	1341
1	1314	1342
1	1341	1343
1	1370	1344
1	1424	1345
1	1479	1346
1	1541	1347
1	1602	1348
1	1646	1349
1	1675	1350
1	1692	1351
1	1695	1352
1	1686	1353
1	1659	1354
1	1608	1355
1	1550	1356
1	1490	1357
1	1422	1358
1	1373	1359
1	1343	1360
1	1319	1361
1	1306	1362
1	1317	1363
1	1334	1364
1	1364	1365
1	1405	1366
1	1446	1367
1	1485	1368
1	1520	1369
1	1553	1370
1	1579	1371
1	1587	1372
1	1578	1373
1	1566	1374
1	1554	1375
1	1543	1376
1	1537	1377
1	1530	1378
1	1529	1379
1	1527	1380
1	1525	1381
1	1526	1382
1	1529	1383
1	1529	1384
1	1538	1385
1	1548	1386
1	1556	1387
1	1564	1388
1	1581	1389
1	1600	1390
1	1613	1391
1	1619	1392
1	1616	1393
1	1602	1394
1	1580	1395
1	1554	1396
1	1528	1397
1	1494	1398
1	1459	1399
1	1430	1400
1	1410	1401
1	1407	1402
1	1412	1403
1	1429	1404
1	1452	1405
1	1476	1406
1	1500	1407
1	1524	1408
1	1527	1409
1	1512	1410
1	1488	1411
1	1464	1412
1	1445	1413
1	1428	1414
1	1417	1415
1	1418	1416
1	1426	1417
1	1445	1418
1	1471	1419
1	1512	1420
1	1553	1421
1	1581	1422
1	1608	1423
1	1625	1424
1	1614	1425
1	1598	1426
1	1584	1427
1	1557	1428
1	1541	1429
1	1521	1430
1	1495	1431
1	1471	1432
1	1445	1433
1	1424	1434
1	1414	1435
1	1412	1436
1	1412	1437
1	1417	1438
1	1432	1439
1	1445	1440
1	1453	1441
1	1473	1442
1	1487	1443
1	1503	1444
1	1520	1445
1	1538	1446
1	1550	1447
1	1548	1448
1	1543	1449
1	1538	1450
1	1537	1451
1	1538	1452
1	1547	1453
1	1557	1454
1	1569	1455
1	1574	1456
1	1574	1457
1	1571	1458
1	1575	1459
1	1574	1460
1	1561	1461
1	1535	1462
1	1489	1463
1	1459	1464
1	1437	1465
1	1425	1466
1	1429	1467
1	1438	1468
1	1438	1469
1	1437	1470
1	1433	1471
1	1426	1472
1	1420	1473
1	1408	1474
1	1398	1475
1	1397	1476
1	1399	1477
1	1404	1478
1	1409	1479
1	1419	1480
1	1435	1481
1	1449	1482
1	1475	1483
1	1497	1484
1	1529	1485
1	1562	1486
1	1589	1487
1	1607	1488
1	1620	1489
1	1621	1490
1	1620	1491
1	1620	1492
1	1611	1493
1	1607	1494
1	1602	1495
1	1589	1496
1	1577	1497
1	1567	1498
1	1554	1499
1	1538	1500
1	1520	1501
1	1502	1502
1	1489	1503
1	1484	1504
1	1479	1505
1	1476	1506
1	1476	1507
1	1457	1508
1	1448	1509
1	1435	1510
1	1424	1511
1	1419	1512
1	1416	1513
1	1410	1514
1	1410	1515
1	1423	1516
1	1442	1517
1	1467	1518
1	1497	1519
1	1520	1520
1	1536	1521
1	1544	1522
1	1559	1523
1	1580	1524
1	1598	1525
1	1613	1526
1	1621	1527
1	1625	1528
1	1620	1529
1	1607	1530
1	1594	1531
1	1582	1532
1	1567	1533
1	1550	1534
1	1529	1535
1	1512	1536
1	1500	1537
1	1489	1538
1	1482	1539
1	1476	1540
1	1472	1541
1	1474	1542
1	1481	1543
1	1488	1544
1	1490	1545
1	1494	1546
1	1490	1547
1	1479	1548
1	1463	1549
1	1445	1550
1	1428	1551
1	1422	1552
1	1413	1553
1	1416	1554
1	1427	1555
1	1448	1556
1	1473	1557
1	1512	1558
1	1562	1559
1	1616	1560
1	1674	1561
1	1737	1562
1	1814	1563
1	1890	1564
1	1970	1565
1	2049	1566
1	2124	1567
1	2181	1568
1	2214	1569
1	2244	1570
1	2253	1571
1	2253	1572
1	2253	1573
1	2249	1574
1	2248	1575
1	2250	1576
1	2251	1577
1	2250	1578
1	2248	1579
1	2258	1580
1	2263	1581
1	2275	1582
1	2278	1583
1	2284	1584
1	2288	1585
1	2286	1586
1	2278	1587
1	2266	1588
1	2230	1589
1	2174	1590
1	2105	1591
1	2021	1592
1	1931	1593
1	1838	1594
1	1739	1595
1	1652	1596
1	1580	1597
1	1505	1598
1	1471	1599
1	1445	1600
1	1435	1601
1	1436	1602
1	1449	1603
1	1455	1604
1	1461	1605
1	1460	1606
1	1462	1607
1	1467	1608
1	1481	1609
1	1499	1610
1	1503	1611
1	1503	1612
1	1500	1613
1	1499	1614
1	1494	1615
1	1494	1616
1	1495	1617
1	1503	1618
1	1520	1619
1	1533	1620
1	1546	1621
1	1554	1622
1	1555	1623
1	1555	1624
1	1555	1625
1	1553	1626
1	1546	1627
1	1539	1628
1	1534	1629
1	1534	1630
1	1528	1631
1	1515	1632
1	1495	1633
1	1493	1634
1	1499	1635
1	1498	1636
1	1494	1637
1	1485	1638
1	1481	1639
1	1476	1640
1	1476	1641
1	1477	1642
1	1474	1643
1	1472	1644
1	1473	1645
1	1478	1646
1	1498	1647
1	1524	1648
1	1554	1649
1	1580	1650
1	1599	1651
1	1613	1652
1	1620	1653
1	1607	1654
1	1592	1655
1	1562	1656
1	1533	1657
1	1503	1658
1	1494	1659
1	1482	1660
1	1476	1661
1	1467	1662
1	1475	1663
1	1477	1664
1	1485	1665
1	1501	1666
1	1525	1667
1	1548	1668
1	1577	1669
1	1603	1670
1	1623	1671
1	1636	1672
1	1634	1673
1	1634	1674
1	1634	1675
1	1638	1676
1	1638	1677
1	1643	1678
1	1635	1679
1	1613	1680
1	1589	1681
1	1567	1682
1	1558	1683
1	1555	1684
1	1568	1685
1	1587	1686
1	1607	1687
1	1616	1688
1	1618	1689
1	1615	1690
1	1606	1691
1	1583	1692
1	1567	1693
1	1543	1694
1	1521	1695
1	1502	1696
1	1487	1697
1	1482	1698
1	1487	1699
1	1500	1700
1	1525	1701
1	1553	1702
1	1575	1703
1	1592	1704
1	1607	1705
1	1629	1706
1	1647	1707
1	1674	1708
1	1686	1709
1	1691	1710
1	1693	1711
1	1692	1712
1	1686	1713
1	1677	1714
1	1665	1715
1	1661	1716
1	1659	1717
1	1641	1718
1	1631	1719
1	1621	1720
1	1619	1721
1	1629	1722
1	1642	1723
1	1661	1724
1	1662	1725
1	1652	1726
1	1647	1727
1	1631	1728
1	1620	1729
1	1610	1730
1	1605	1731
1	1597	1732
1	1594	1733
1	1590	1734
1	1593	1735
1	1605	1736
1	1619	1737
1	1629	1738
1	1639	1739
1	1655	1740
1	1668	1741
1	1688	1742
1	1708	1743
1	1736	1744
1	1762	1745
1	1791	1746
1	1816	1747
1	1819	1748
1	1818	1749
1	1814	1750
1	1793	1751
1	1777	1752
1	1754	1753
1	1737	1754
1	1715	1755
1	1703	1756
1	1702	1757
1	1709	1758
1	1721	1759
1	1736	1760
1	1750	1761
1	1764	1762
1	1780	1763
1	1796	1764
1	1823	1765
1	1846	1766
1	1869	1767
1	1895	1768
1	1908	1769
1	1914	1770
1	1909	1771
1	1903	1772
1	1895	1773
1	1883	1774
1	1868	1775
1	1854	1776
1	1843	1777
1	1819	1778
1	1803	1779
1	1782	1780
1	1766	1781
1	1757	1782
1	1751	1783
1	1741	1784
1	1737	1785
1	1733	1786
1	1735	1787
1	1738	1788
1	1738	1789
1	1742	1790
1	1749	1791
1	1755	1792
1	1756	1793
1	1757	1794
1	1755	1795
1	1754	1796
1	1755	1797
1	1760	1798
1	1762	1799
1	1768	1800
1	1777	1801
1	1783	1802
1	1792	1803
1	1803	1804
1	1822	1805
1	1841	1806
1	1859	1807
1	1864	1808
1	1868	1809
1	1868	1810
1	1857	1811
1	1837	1812
1	1803	1813
1	1764	1814
1	1723	1815
1	1685	1816
1	1660	1817
1	1647	1818
1	1643	1819
1	1635	1820
1	1632	1821
1	1618	1822
1	1618	1823
1	1626	1824
1	1638	1825
1	1647	1826
1	1653	1827
1	1652	1828
1	1660	1829
1	1660	1830
1	1656	1831
1	1647	1832
1	1625	1833
1	1607	1834
1	1596	1835
1	1585	1836
1	1580	1837
1	1554	1838
1	1535	1839
1	1520	1840
1	1507	1841
1	1503	1842
1	1500	1843
1	1503	1844
1	1507	1845
1	1512	1846
1	1517	1847
1	1517	1848
1	1511	1849
1	1503	1850
1	1497	1851
1	1485	1852
1	1467	1853
1	1454	1854
1	1446	1855
1	1439	1856
1	1445	1857
1	1458	1858
1	1480	1859
1	1509	1860
1	1544	1861
1	1581	1862
1	1616	1863
1	1649	1864
1	1674	1865
1	1688	1866
1	1697	1867
1	1686	1868
1	1672	1869
1	1647	1870
1	1616	1871
1	1580	1872
1	1546	1873
1	1508	1874
1	1476	1875
1	1446	1876
1	1413	1877
1	1384	1878
1	1369	1879
1	1360	1880
1	1353	1881
1	1354	1882
1	1355	1883
1	1363	1884
1	1376	1885
1	1403	1886
1	1436	1887
1	1475	1888
1	1503	1889
1	1533	1890
1	1555	1891
1	1569	1892
1	1574	1893
1	1568	1894
1	1557	1895
1	1548	1896
1	1537	1897
1	1517	1898
1	1507	1899
1	1503	1900
1	1504	1901
1	1516	1902
1	1538	1903
1	1559	1904
1	1585	1905
1	1610	1906
1	1631	1907
1	1635	1908
1	1630	1909
1	1607	1910
1	1580	1911
1	1550	1912
1	1519	1913
1	1502	1914
1	1476	1915
1	1454	1916
1	1430	1917
1	1404	1918
1	1373	1919
1	1360	1920
1	1363	1921
1	1374	1922
1	1400	1923
1	1424	1924
1	1451	1925
1	1490	1926
1	1534	1927
1	1582	1928
1	1625	1929
1	1656	1930
1	1664	1931
1	1660	1932
1	1640	1933
1	1625	1934
1	1594	1935
1	1561	1936
1	1544	1937
1	1537	1938
1	1534	1939
1	1534	1940
1	1535	1941
1	1531	1942
1	1541	1943
1	1547	1944
1	1562	1945
1	1580	1946
1	1588	1947
1	1596	1948
1	1607	1949
1	1607	1950
1	1607	1951
1	1599	1952
1	1582	1953
1	1563	1954
1	1538	1955
1	1515	1956
1	1502	1957
1	1493	1958
1	1485	1959
1	1487	1960
1	1494	1961
1	1504	1962
1	1530	1963
1	1557	1964
1	1592	1965
1	1626	1966
1	1651	1967
1	1661	1968
1	1660	1969
1	1652	1970
1	1639	1971
1	1613	1972
1	1580	1973
1	1528	1974
1	1477	1975
1	1437	1976
1	1413	1977
1	1415	1978
1	1423	1979
1	1440	1980
1	1472	1981
1	1508	1982
1	1555	1983
1	1607	1984
1	1652	1985
1	1686	1986
1	1716	1987
1	1739	1988
1	1745	1989
1	1743	1990
1	1738	1991
1	1724	1992
1	1713	1993
1	1692	1994
1	1662	1995
1	1637	1996
1	1613	1997
1	1594	1998
1	1575	1999
1	1557	2000
1	1553	2001
1	1556	2002
1	1576	2003
1	1595	2004
1	1616	2005
1	1622	2006
1	1625	2007
1	1629	2008
1	1618	2009
1	1608	2010
1	1597	2011
1	1590	2012
1	1584	2013
1	1587	2014
1	1597	2015
1	1607	2016
1	1611	2017
1	1607	2018
1	1588	2019
1	1572	2020
1	1567	2021
1	1566	2022
1	1567	2023
1	1581	2024
1	1585	2025
1	1595	2026
1	1623	2027
1	1643	2028
1	1668	2029
1	1686	2030
1	1698	2031
1	1701	2032
1	1698	2033
1	1690	2034
1	1678	2035
1	1660	2036
1	1647	2037
1	1633	2038
1	1625	2039
1	1613	2040
1	1607	2041
1	1607	2042
1	1603	2043
1	1602	2044
1	1605	2045
1	1610	2046
1	1625	2047
1	1644	2048
1	1655	2049
1	1665	2050
1	1674	2051
1	1680	2052
1	1679	2053
1	1675	2054
1	1660	2055
1	1641	2056
1	1623	2057
1	1606	2058
1	1586	2059
1	1580	2060
1	1580	2061
1	1584	2062
1	1591	2063
1	1593	2064
1	1600	2065
1	1615	2066
1	1631	2067
1	1654	2068
1	1662	2069
1	1679	2070
1	1688	2071
1	1698	2072
1	1711	2073
1	1724	2074
1	1728	2075
1	1715	2076
1	1691	2077
1	1665	2078
1	1638	2079
1	1625	2080
1	1611	2081
1	1607	2082
1	1616	2083
1	1631	2084
1	1646	2085
1	1659	2086
1	1661	2087
1	1664	2088
1	1661	2089
1	1661	2090
1	1664	2091
1	1665	2092
1	1661	2093
1	1645	2094
1	1631	2095
1	1616	2096
1	1605	2097
1	1598	2098
1	1592	2099
1	1593	2100
1	1600	2101
1	1623	2102
1	1644	2103
1	1664	2104
1	1683	2105
1	1693	2106
1	1697	2107
1	1698	2108
1	1686	2109
1	1675	2110
1	1674	2111
1	1672	2112
1	1682	2113
1	1677	2114
1	1661	2115
1	1643	2116
1	1622	2117
1	1606	2118
1	1597	2119
1	1608	2140
1	1581	2141
1	1567	2142
1	1563	2143
1	1568	2144
1	1574	2145
1	1589	2146
1	1611	2147
1	1634	2148
1	1647	2149
1	1652	2150
1	1650	2151
1	1634	2152
1	1613	2153
1	1584	2154
1	1564	2155
1	1551	2156
1	1537	2157
1	1528	2158
1	1530	2159
1	1600	2120
1	1607	2121
1	1625	2122
1	1647	2123
1	1684	2124
1	1718	2125
1	1756	2126
1	1795	2127
1	1841	2128
1	1868	2129
1	1883	2130
1	1883	2131
1	1880	2132
1	1868	2133
1	1845	2134
1	1817	2135
1	1774	2136
1	1735	2137
1	1693	2138
1	1647	2139
1	1536	2160
1	1551	2161
1	1574	2162
1	1601	2163
1	1631	2164
1	1660	2165
1	1678	2166
1	1682	2167
1	1685	2168
1	1674	2169
1	1667	2170
1	1660	2171
1	1655	2172
1	1652	2173
1	1639	2174
1	1625	2175
1	1613	2176
1	1607	2177
1	1594	2178
1	1579	2179
1	1564	2180
1	1555	2181
1	1544	2182
1	1543	2183
1	1544	2184
1	1557	2185
1	1574	2186
1	1587	2187
1	1603	2188
1	1607	2189
1	1616	2190
1	1632	2191
1	1641	2192
1	1639	2193
1	1634	2194
1	1633	2195
1	1634	2196
1	1639	2197
1	1646	2198
1	1639	2199
1	1634	2200
1	1625	2201
1	1616	2202
1	1611	2203
1	1607	2204
1	1598	2205
1	1592	2206
1	1585	2207
1	1589	2208
1	1594	2209
1	1600	2210
1	1595	2211
1	1583	2212
1	1562	2213
1	1536	2214
1	1517	2215
1	1505	2216
1	1503	2217
1	1515	2218
1	1528	2219
1	1542	2220
1	1555	2221
1	1572	2222
1	1593	2223
1	1609	2224
1	1638	2225
1	1665	2226
1	1687	2227
1	1698	2228
1	1697	2229
1	1685	2230
1	1664	2231
1	1643	2232
1	1616	2233
1	1596	2234
1	1571	2235
1	1550	2236
1	1543	2237
1	1542	2238
1	1551	2239
1	1516	2260
1	1536	2261
1	1562	2262
1	1597	2263
1	1632	2264
1	1659	2265
1	1682	2266
1	1701	2267
1	1723	2268
1	1742	2269
1	1754	2270
1	1751	2271
1	1728	2272
1	1690	2273
1	1634	2274
1	1576	2275
1	1525	2276
1	1481	2277
1	1463	2278
1	1448	2279
1	1567	2240
1	1584	2241
1	1605	2242
1	1632	2243
1	1652	2244
1	1683	2245
1	1704	2246
1	1713	2247
1	1712	2248
1	1708	2249
1	1680	2250
1	1648	2251
1	1619	2252
1	1583	2253
1	1552	2254
1	1529	2255
1	1510	2256
1	1502	2257
1	1499	2258
1	1502	2259
1	1445	2280
1	1458	2281
1	1490	2282
1	1529	2283
1	1575	2284
1	1613	2285
1	1644	2286
1	1665	2287
1	1674	2288
1	1663	2289
1	1654	2290
1	1638	2291
1	1628	2292
1	1621	2293
1	1602	2294
1	1581	2295
1	1572	2296
1	1574	2297
1	1585	2298
1	1613	2299
1	1660	2300
1	1724	2301
1	1791	2302
1	1857	2303
1	1906	2304
1	1951	2305
1	2000	2306
1	2045	2307
1	2105	2308
1	2161	2309
1	2210	2310
1	2258	2311
1	2287	2312
1	2303	2313
1	2312	2314
1	2309	2315
1	2304	2316
1	2302	2317
1	2298	2318
1	2288	2319
1	2288	2320
1	2299	2321
1	2314	2322
1	2327	2323
1	2343	2324
1	2341	2325
1	2335	2326
1	2319	2327
1	2279	2328
1	2238	2329
1	2196	2330
1	2145	2331
1	2088	2332
1	2025	2333
1	1953	2334
1	1884	2335
1	1812	2336
1	1736	2337
1	1665	2338
1	1607	2339
1	1568	2340
1	1548	2341
1	1547	2342
1	1550	2343
1	1557	2344
1	1567	2345
1	1582	2346
1	1597	2347
1	1610	2348
1	1607	2349
1	1603	2350
1	1594	2351
1	1585	2352
1	1574	2353
1	1562	2354
1	1541	2355
1	1525	2356
1	1517	2357
1	1517	2358
1	1524	2359
1	1531	2360
1	1547	2361
1	1561	2362
1	1581	2363
1	1602	2364
1	1633	2365
1	1663	2366
1	1692	2367
1	1724	2368
1	1743	2369
1	1754	2370
1	1759	2371
1	1755	2372
1	1749	2373
1	1737	2374
1	1721	2375
1	1701	2376
1	1674	2377
1	1647	2378
1	1610	2379
1	1584	2380
1	1567	2381
1	1558	2382
1	1568	2383
1	1580	2384
1	1596	2385
1	1621	2386
1	1650	2387
1	1677	2388
1	1699	2389
1	1719	2390
1	1735	2391
1	1739	2392
1	1738	2393
1	1720	2394
1	1698	2395
1	1674	2396
1	1657	2397
1	1645	2398
1	1634	2399
1	1625	2400
1	1628	2401
1	1638	2402
1	1661	2403
1	1697	2404
1	1733	2405
1	1769	2406
1	1803	2407
1	1827	2408
1	1829	2409
1	1823	2410
1	1791	2411
1	1753	2412
1	1713	2413
1	1665	2414
1	1629	2415
1	1594	2416
1	1572	2417
1	1561	2418
1	1562	2419
1	1571	2420
1	1585	2421
1	1605	2422
1	1626	2423
1	1651	2424
1	1678	2425
1	1707	2426
1	1741	2427
1	1770	2428
1	1795	2429
1	1809	2430
1	1811	2431
1	1820	2432
1	1822	2433
1	1822	2434
1	1818	2435
1	1810	2436
1	1785	2437
1	1760	2438
1	1731	2439
1	1712	2440
1	1700	2441
1	1690	2442
1	1680	2443
1	1674	2444
1	1668	2445
1	1672	2446
1	1685	2447
1	1699	2448
1	1711	2449
1	1715	2450
1	1715	2451
1	1712	2452
1	1706	2453
1	1702	2454
1	1710	2455
1	1715	2456
1	1716	2457
1	1721	2458
1	1724	2459
1	1729	2460
1	1737	2461
1	1751	2462
1	1777	2463
1	1817	2464
1	1856	2465
1	1883	2466
1	1897	2467
1	1913	2468
1	1914	2469
1	1918	2470
1	1908	2471
1	1895	2472
1	1882	2473
1	1859	2474
1	1832	2475
1	1808	2476
1	1781	2477
1	1764	2478
1	1751	2479
1	1743	2480
1	1742	2481
1	1751	2482
1	1757	2483
1	1764	2484
1	1774	2485
1	1791	2486
1	1818	2487
1	1857	2488
1	1885	2489
1	1901	2490
1	1908	2491
1	1907	2492
1	1899	2493
1	1895	2494
1	1890	2495
1	1886	2496
1	1885	2497
1	1885	2498
1	1878	2499
1	1886	2500
1	1908	2501
1	1934	2502
1	1965	2503
1	1983	2504
1	1993	2505
1	2001	2506
1	2012	2507
1	2019	2508
1	2027	2509
1	2029	2510
1	2019	2511
1	2000	2512
1	1971	2513
1	1936	2514
1	1919	2515
1	1913	2516
1	1919	2517
1	1933	2518
1	1948	2519
1	1960	2520
1	1967	2521
1	1971	2522
1	1974	2523
1	1971	2524
1	1970	2525
1	1966	2526
1	1962	2527
1	1955	2528
1	1943	2529
1	1930	2530
1	1917	2531
1	1901	2532
1	1878	2533
1	1849	2534
1	1828	2535
1	1818	2536
1	1829	2537
1	1843	2538
1	1859	2539
1	1879	2540
1	1899	2541
1	1925	2542
1	1947	2543
1	1950	2544
1	1961	2545
1	1968	2546
1	1974	2547
1	1982	2548
1	1974	2549
1	1958	2550
1	1934	2551
1	1899	2552
1	1856	2553
1	1813	2554
1	1763	2555
1	1719	2556
1	1686	2557
1	1660	2558
1	1639	2559
1	1629	2560
1	1634	2561
1	1659	2562
1	1691	2563
1	1738	2564
1	1777	2565
1	1818	2566
1	1856	2567
1	1887	2568
1	1907	2569
1	1914	2570
1	1913	2571
1	1904	2572
1	1884	2573
1	1846	2574
1	1813	2575
1	1767	2576
1	1729	2577
1	1698	2578
1	1665	2579
1	1639	2580
1	1626	2581
1	1621	2582
1	1626	2583
1	1638	2584
1	1656	2585
1	1665	2586
1	1661	2587
1	1649	2588
1	1626	2589
1	1607	2590
1	1581	2591
1	1555	2592
1	1542	2593
1	1529	2594
1	1517	2595
1	1507	2596
1	1499	2597
1	1494	2598
1	1494	2599
1	1495	2600
1	1505	2601
1	1527	2602
1	1550	2603
1	1566	2604
1	1582	2605
1	1600	2606
1	1611	2607
1	1625	2608
1	1623	2609
1	1616	2610
1	1608	2611
1	1603	2612
1	1590	2613
1	1572	2614
1	1546	2615
1	1515	2616
1	1485	2617
1	1464	2618
1	1449	2619
1	1450	2620
1	1466	2621
1	1487	2622
1	1495	2623
1	1526	2624
1	1544	2625
1	1560	2626
1	1589	2627
1	1600	2628
1	1607	2629
1	1607	2630
1	1598	2631
1	1598	2632
1	1597	2633
1	1592	2634
1	1580	2635
1	1561	2636
1	1537	2637
1	1508	2638
1	1481	2639
1	1464	2640
1	1450	2641
1	1451	2642
1	1461	2643
1	1479	2644
1	1503	2645
1	1526	2646
1	1553	2647
1	1579	2648
1	1590	2649
1	1605	2650
1	1610	2651
1	1610	2652
1	1609	2653
1	1607	2654
1	1595	2655
1	1580	2656
1	1562	2657
1	1549	2658
1	1534	2659
1	1529	2660
1	1529	2661
1	1538	2662
1	1551	2663
1	1557	2664
1	1569	2665
1	1579	2666
1	1582	2667
1	1596	2668
1	1594	2669
1	1584	2670
1	1569	2671
1	1555	2672
1	1538	2673
1	1503	2674
1	1463	2675
1	1417	2676
1	1371	2677
1	1337	2678
1	1310	2679
1	1302	2680
1	1317	2681
1	1346	2682
1	1400	2683
1	1451	2684
1	1505	2685
1	1556	2686
1	1603	2687
1	1632	2688
1	1634	2689
1	1634	2690
1	1629	2691
1	1623	2692
1	1620	2693
1	1615	2694
1	1616	2695
1	1613	2696
1	1607	2697
1	1602	2698
1	1593	2699
1	1582	2700
1	1571	2701
1	1557	2702
1	1553	2703
1	1551	2704
1	1555	2705
1	1566	2706
1	1576	2707
1	1586	2708
1	1585	2709
1	1586	2710
1	1581	2711
1	1570	2712
1	1555	2713
1	1530	2714
1	1511	2715
1	1492	2716
1	1485	2717
1	1489	2718
1	1503	2719
1	1521	2720
1	1540	2721
1	1554	2722
1	1566	2723
1	1582	2724
1	1602	2725
1	1609	2726
1	1613	2727
1	1611	2728
1	1605	2729
1	1596	2730
1	1589	2731
1	1586	2732
1	1581	2733
1	1579	2734
1	1571	2735
1	1557	2736
1	1544	2737
1	1525	2738
1	1489	2739
1	1459	2740
1	1438	2741
1	1428	2742
1	1428	2743
1	1448	2744
1	1464	2745
1	1483	2746
1	1502	2747
1	1514	2748
1	1527	2749
1	1534	2750
1	1551	2751
1	1559	2752
1	1570	2753
1	1566	2754
1	1574	2755
1	1584	2756
1	1603	2757
1	1630	2758
1	1647	2759
1	1665	2760
1	1683	2761
1	1697	2762
1	1710	2763
1	1720	2764
1	1729	2765
1	1735	2766
1	1737	2767
1	1727	2768
1	1704	2769
1	1677	2770
1	1648	2771
1	1620	2772
1	1596	2773
1	1566	2774
1	1543	2775
1	1524	2776
1	1503	2777
1	1494	2778
1	1491	2779
1	1502	2780
1	1521	2781
1	1546	2782
1	1581	2783
1	1613	2784
1	1644	2785
1	1665	2786
1	1685	2787
1	1696	2788
1	1693	2789
1	1694	2790
1	1692	2791
1	1694	2792
1	1693	2793
1	1692	2794
1	1693	2795
1	1695	2796
1	1686	2797
1	1668	2798
1	1643	2799
1	1620	2800
1	1595	2801
1	1577	2802
1	1562	2803
1	1548	2804
1	1539	2805
1	1537	2806
1	1536	2807
1	1537	2808
1	1531	2809
1	1529	2810
1	1526	2811
1	1521	2812
1	1527	2813
1	1530	2814
1	1539	2815
1	1548	2816
1	1557	2817
1	1580	2818
1	1595	2819
1	1607	2820
1	1621	2821
1	1634	2822
1	1647	2823
1	1649	2824
1	1657	2825
1	1660	2826
1	1657	2827
1	1651	2828
1	1642	2829
1	1630	2830
1	1613	2831
1	1600	2832
1	1586	2833
1	1570	2834
1	1553	2835
1	1542	2836
1	1542	2837
1	1544	2838
1	1560	2839
1	1580	2840
1	1600	2841
1	1620	2842
1	1634	2843
1	1647	2844
1	1660	2845
1	1679	2846
1	1699	2847
1	1718	2848
1	1738	2849
1	1759	2850
1	1773	2851
1	1788	2852
1	1791	2853
1	1787	2854
1	1766	2855
1	1746	2856
1	1718	2857
1	1690	2858
1	1660	2859
1	1638	2880
1	1634	2881
1	1632	2882
1	1638	2883
1	1657	2884
1	1674	2885
1	1692	2886
1	1703	2887
1	1708	2888
1	1703	2889
1	1697	2890
1	1688	2891
1	1676	2892
1	1669	2893
1	1655	2894
1	1634	2895
1	1618	2896
1	1599	2897
1	1585	2898
1	1573	2899
1	1647	2860
1	1643	2861
1	1644	2862
1	1651	2863
1	1660	2864
1	1670	2865
1	1686	2866
1	1697	2867
1	1712	2868
1	1726	2869
1	1738	2870
1	1749	2871
1	1747	2872
1	1738	2873
1	1717	2874
1	1704	2875
1	1690	2876
1	1678	2877
1	1668	2878
1	1653	2879
1	1564	2900
1	1559	2901
1	1564	2902
1	1575	2903
1	1590	2904
1	1608	2905
1	1633	2906
1	1660	2907
1	1701	2908
1	1734	2909
1	1764	2910
1	1791	2911
1	1813	2912
1	1817	2913
1	1809	2914
1	1789	2915
1	1764	2916
1	1738	2917
1	1718	2918
1	1696	2919
1	1682	2920
1	1672	2921
1	1674	2922
1	1668	2923
1	1671	2924
1	1660	2925
1	1660	2926
1	1679	2927
1	1688	2928
1	1701	2929
1	1699	2930
1	1689	2931
1	1670	2932
1	1649	2933
1	1632	2934
1	1616	2935
1	1602	2936
1	1592	2937
1	1585	2938
1	1582	2939
1	1593	2940
1	1615	2941
1	1647	2942
1	1670	2943
1	1692	2944
1	1712	2945
1	1737	2946
1	1752	2947
1	1757	2948
1	1740	2949
1	1721	2950
1	1697	2951
1	1667	2952
1	1635	2953
1	1610	2954
1	1582	2955
1	1555	2956
1	1538	2957
1	1531	2958
1	1539	2959
1	1554	2960
1	1579	2961
1	1607	2962
1	1634	2963
1	1649	2964
1	1663	2965
1	1677	2966
1	1692	2967
1	1712	2968
1	1733	2969
1	1753	2970
1	1773	2971
1	1786	2972
1	1782	2973
1	1770	2974
1	1755	2975
1	1740	2976
1	1724	2977
1	1712	2978
1	1700	2979
1	1705	2980
1	1724	2981
1	1750	2982
1	1786	2983
1	1814	2984
1	1827	2985
1	1831	2986
1	1823	2987
1	1814	2988
1	1796	2989
1	1774	2990
1	1746	2991
1	1715	2992
1	1692	2993
1	1659	2994
1	1638	2995
1	1628	2996
1	1611	2997
1	1606	2998
1	1602	2999
1	1608	3000
1	1618	3001
1	1634	3002
1	1655	3003
1	1684	3004
1	1717	3005
1	1757	3006
1	1793	3007
1	1829	3008
1	1845	3009
1	1857	3010
1	1856	3011
1	1843	3012
1	1830	3013
1	1803	3014
1	1787	3015
1	1766	3016
1	1760	3017
1	1764	3018
1	1778	3019
1	1809	3020
1	1839	3021
1	1864	3022
1	1900	3023
1	1940	3024
1	1980	3025
1	2021	3026
1	2066	3027
1	2119	3028
1	2178	3029
1	2241	3030
1	2299	3031
1	2345	3032
1	2387	3033
1	2419	3034
1	2433	3035
1	2453	3036
1	2468	3037
1	2480	3038
1	2484	3039
1	2498	3040
1	2519	3041
1	2543	3042
1	2570	3043
1	2599	3044
1	2617	3045
1	2623	3046
1	2621	3047
1	2606	3048
1	2574	3049
1	2527	3050
1	2471	3051
1	2398	3052
1	2314	3053
1	2205	3054
1	2104	3055
1	2005	3056
1	1917	3057
1	1850	3058
1	1788	3059
1	1744	3060
1	1718	3061
1	1706	3062
1	1710	3063
1	1724	3064
1	1747	3065
1	1769	3066
1	1791	3067
1	1808	3068
1	1816	3069
1	1819	3070
1	1819	3071
1	1811	3072
1	1800	3073
1	1787	3074
1	1775	3075
1	1763	3076
1	1744	3077
1	1726	3078
1	1709	3079
1	1695	3080
1	1693	3081
1	1704	3082
1	1723	3083
1	1738	3084
1	1752	3085
1	1764	3086
1	1774	3087
1	1800	3088
1	1819	3089
1	1835	3090
1	1840	3091
1	1828	3092
1	1803	3093
1	1773	3094
1	1739	3095
1	1706	3096
1	1671	3097
1	1643	3098
1	1615	3099
1	1602	3100
1	1598	3101
1	1607	3102
1	1631	3103
1	1654	3104
1	1683	3105
1	1708	3106
1	1733	3107
1	1751	3108
1	1762	3109
1	1760	3110
1	1751	3111
1	1739	3112
1	1735	3113
1	1723	3114
1	1716	3115
1	1712	3116
1	1705	3117
1	1714	3118
1	1733	3119
1	1752	3120
1	1773	3121
1	1795	3122
1	1822	3123
1	1843	3124
1	1868	3125
1	1885	3126
1	1894	3127
1	1884	3128
1	1869	3129
1	1844	3130
1	1814	3131
1	1773	3132
1	1738	3133
1	1701	3134
1	1669	3135
1	1646	3136
1	1622	3137
1	1608	3138
1	1603	3139
1	1600	3140
1	1606	3141
1	1618	3142
1	1644	3143
1	1674	3144
1	1711	3145
1	1742	3146
1	1773	3147
1	1809	3148
1	1847	3149
1	1872	3150
1	1890	3151
1	1894	3152
1	1883	3153
1	1869	3154
1	1852	3155
1	1840	3156
1	1831	3157
1	1827	3158
1	1818	3159
1	1819	3160
1	1825	3161
1	1834	3162
1	1847	3163
1	1846	3164
1	1842	3165
1	1836	3166
1	1836	3167
1	1834	3168
1	1823	3169
1	1803	3170
1	1780	3171
1	1756	3172
1	1734	3173
1	1704	3174
1	1686	3175
1	1677	3176
1	1668	3177
1	1674	3178
1	1679	3179
1	1886	3200
1	1893	3201
1	1897	3202
1	1911	3203
1	1921	3204
1	1934	3205
1	1949	3206
1	1972	3207
1	1998	3208
1	2006	3209
1	2012	3210
1	2006	3211
1	1998	3212
1	1983	3213
1	1965	3214
1	1951	3215
1	1948	3216
1	1947	3217
1	1947	3218
1	1937	3219
1	1686	3180
1	1700	3181
1	1715	3182
1	1738	3183
1	1772	3184
1	1827	3185
1	1881	3186
1	1930	3187
1	1962	3188
1	1980	3189
1	1992	3190
1	1993	3191
1	1988	3192
1	1979	3193
1	1962	3194
1	1944	3195
1	1922	3196
1	1904	3197
1	1891	3198
1	1884	3199
1	1944	3220
1	1952	3221
1	1974	3222
1	1998	3223
1	2032	3224
1	2068	3225
1	2086	3226
1	2109	3227
1	2107	3228
1	2104	3229
1	2097	3230
1	2089	3231
1	2075	3232
1	2052	3233
1	2025	3234
1	2000	3235
1	1976	3236
1	1961	3237
1	1958	3238
1	1958	3239
1	1958	3240
1	1966	3241
1	1972	3242
1	1978	3243
1	1992	3244
1	2003	3245
1	2017	3246
1	2029	3247
1	2039	3248
1	2039	3249
1	2032	3250
1	2025	3251
1	2011	3252
1	1987	3253
1	1967	3254
1	1940	3255
1	1922	3256
1	1917	3257
1	1922	3258
1	1948	3259
1	1983	3260
1	2022	3261
1	2057	3262
1	2096	3263
1	2118	3264
1	2142	3265
1	2146	3266
1	2136	3267
1	2131	3268
1	2115	3269
1	2102	3270
1	2081	3271
1	2061	3272
1	2036	3273
1	2011	3274
1	1989	3275
1	1974	3276
1	1971	3277
1	1966	3278
1	1961	3279
1	1809	3300
1	1790	3301
1	1777	3302
1	1765	3303
1	1764	3304
1	1764	3305
1	1762	3306
1	1763	3307
1	1764	3308
1	1760	3309
1	1755	3310
1	1751	3311
1	1738	3312
1	1737	3313
1	1726	3314
1	1713	3315
1	1705	3316
1	1701	3317
1	1697	3318
1	1690	3319
1	1958	3280
1	1955	3281
1	1961	3282
1	1971	3283
1	1976	3284
1	1989	3285
1	1999	3286
1	1999	3287
1	1993	3288
1	1988	3289
1	1979	3290
1	1971	3291
1	1959	3292
1	1948	3293
1	1922	3294
1	1901	3295
1	1881	3296
1	1860	3297
1	1844	3298
1	1824	3299
1	1686	3320
1	1687	3321
1	1692	3322
1	1712	3323
1	1731	3324
1	1751	3325
1	1765	3326
1	1786	3327
1	1812	3328
1	1824	3329
1	1837	3330
1	1846	3331
1	1847	3332
1	1844	3333
1	1837	3334
1	1824	3335
1	1818	3336
1	1817	3337
1	1818	3338
1	1816	3339
1	1803	3340
1	1786	3341
1	1765	3342
1	1750	3343
1	1738	3344
1	1721	3345
1	1710	3346
1	1700	3347
1	1698	3348
1	1690	3349
1	1686	3350
1	1685	3351
1	1685	3352
1	1679	3353
1	1670	3354
1	1670	3355
1	1674	3356
1	1681	3357
1	1701	3358
1	1719	3359
1	1738	3360
1	1762	3361
1	1789	3362
1	1821	3363
1	1854	3364
1	1883	3365
1	1903	3366
1	1913	3367
1	1914	3368
1	1904	3369
1	1904	3370
1	1901	3371
1	1890	3372
1	1879	3373
1	1848	3374
1	1803	3375
1	1760	3376
1	1712	3377
1	1673	3378
1	1636	3379
1	1620	3380
1	1620	3381
1	1629	3382
1	1648	3383
1	1675	3384
1	1707	3385
1	1738	3386
1	1766	3387
1	1795	3388
1	1809	3389
1	1817	3390
1	1817	3391
1	1815	3392
1	1806	3393
1	1791	3394
1	1777	3395
1	1764	3396
1	1755	3397
1	1744	3398
1	1734	3399
1	1728	3400
1	1727	3401
1	1724	3402
1	1731	3403
1	1760	3404
1	1799	3405
1	1850	3406
1	1894	3407
1	1927	3408
1	1953	3409
1	1961	3410
1	1949	3411
1	1922	3412
1	1883	3413
1	1838	3414
1	1800	3415
1	1775	3416
1	1760	3417
1	1759	3418
1	1755	3419
1	1765	3420
1	1789	3421
1	1803	3422
1	1817	3423
1	1818	3424
1	1827	3425
1	1832	3426
1	1845	3427
1	1870	3428
1	1895	3429
1	1920	3430
1	1939	3431
1	1955	3432
1	1965	3433
1	1961	3434
1	1953	3435
1	1940	3436
1	1916	3437
1	1890	3438
1	1868	3439
1	1859	3440
1	1856	3441
1	1849	3442
1	1839	3443
1	1821	3444
1	1817	3445
1	1817	3446
1	1823	3447
1	1829	3448
1	1841	3449
1	1840	3450
1	1832	3451
1	1831	3452
1	1829	3453
1	1823	3454
1	1816	3455
1	1801	3456
1	1792	3457
1	1791	3458
1	1790	3459
1	1798	3460
1	1817	3461
1	1832	3462
1	1861	3463
1	1886	3464
1	1900	3465
1	1913	3466
1	1924	3467
1	1930	3468
1	1933	3469
1	1935	3470
1	1938	3471
1	1939	3472
1	1932	3473
1	1917	3474
1	1906	3475
1	1893	3476
1	1871	3477
1	1857	3478
1	1838	3479
1	1823	3480
1	1818	3481
1	1824	3482
1	1835	3483
1	1854	3484
1	1877	3485
1	1895	3486
1	1908	3487
1	1922	3488
1	1922	3489
1	1921	3490
1	1910	3491
1	1895	3492
1	1877	3493
1	1856	3494
1	1843	3495
1	1840	3496
1	1833	3497
1	1823	3498
1	1809	3499
1	1792	3500
1	1788	3501
1	1785	3502
1	1787	3503
1	1788	3504
1	1799	3505
1	1818	3506
1	1839	3507
1	1856	3508
1	1875	3509
1	1895	3510
1	1919	3511
1	1948	3512
1	1979	3513
1	2005	3514
1	2025	3515
1	2030	3516
1	2021	3517
1	2000	3518
1	1963	3519
1	1940	3520
1	1922	3521
1	1903	3522
1	1886	3523
1	1875	3524
1	1861	3525
1	1853	3526
1	1867	3527
1	1869	3528
1	1878	3529
1	1885	3530
1	1886	3531
1	1882	3532
1	1874	3533
1	1864	3534
1	1848	3535
1	1831	3536
1	1813	3537
1	1791	3538
1	1780	3539
1	1821	3560
1	1817	3561
1	1827	3562
1	1847	3563
1	1860	3564
1	1874	3565
1	1884	3566
1	1885	3567
1	1881	3568
1	1870	3569
1	1862	3570
1	1856	3571
1	1848	3572
1	1836	3573
1	1819	3574
1	1799	3575
1	1777	3576
1	1762	3577
1	1747	3578
1	1734	3579
1	1776	3540
1	1789	3541
1	1800	3542
1	1817	3543
1	1831	3544
1	1845	3545
1	1868	3546
1	1891	3547
1	1913	3548
1	1929	3549
1	1944	3550
1	1946	3551
1	1940	3552
1	1934	3553
1	1927	3554
1	1914	3555
1	1896	3556
1	1873	3557
1	1854	3558
1	1838	3559
1	1874	3600
1	1849	3601
1	1832	3602
1	1817	3603
1	1814	3604
1	1812	3605
1	1817	3606
1	1830	3607
1	1847	3608
1	1860	3609
1	1883	3610
1	1899	3611
1	1912	3612
1	1922	3613
1	1922	3614
1	1919	3615
1	1916	3616
1	1907	3617
1	1899	3618
1	1904	3619
1	1727	3580
1	1727	3581
1	1728	3582
1	1734	3583
1	1742	3584
1	1751	3585
1	1765	3586
1	1788	3587
1	1821	3588
1	1862	3589
1	1906	3590
1	1944	3591
1	1965	3592
1	1976	3593
1	1974	3594
1	1965	3595
1	1949	3596
1	1932	3597
1	1914	3598
1	1898	3599
1	1904	3620
1	1904	3621
1	1888	3622
1	1880	3623
1	1875	3624
1	1867	3625
1	1860	3626
1	1856	3627
1	1855	3628
1	1854	3629
1	1857	3630
1	1861	3631
1	1860	3632
1	1860	3633
1	1855	3634
1	1845	3635
1	1835	3636
1	1816	3637
1	1794	3638
1	1773	3639
1	1765	3640
1	1766	3641
1	1776	3642
1	1789	3643
1	1809	3644
1	1827	3645
1	1849	3646
1	1869	3647
1	1886	3648
1	1899	3649
1	1901	3650
1	1898	3651
1	1896	3652
1	1898	3653
1	1890	3654
1	1881	3655
1	1867	3656
1	1843	3657
1	1825	3658
1	1795	3659
1	1770	3660
1	1753	3661
1	1744	3662
1	1749	3663
1	1760	3664
1	1775	3665
1	1787	3666
1	1790	3667
1	1787	3668
1	1775	3669
1	1770	3670
1	1773	3671
1	1774	3672
1	1778	3673
1	1776	3674
1	1774	3675
1	1772	3676
1	1764	3677
1	1751	3678
1	1744	3679
1	1743	3680
1	1747	3681
1	1755	3682
1	1769	3683
1	1786	3684
1	1803	3685
1	1826	3686
1	1843	3687
1	1860	3688
1	1871	3689
1	1869	3690
1	1857	3691
1	1836	3692
1	1803	3693
1	1778	3694
1	1762	3695
1	1750	3696
1	1737	3697
1	1725	3698
1	1715	3699
1	1715	3700
1	1719	3701
1	1728	3702
1	1737	3703
1	1755	3704
1	1764	3705
1	1778	3706
1	1788	3707
1	1787	3708
1	1775	3709
1	1763	3710
1	1751	3711
1	1734	3712
1	1706	3713
1	1677	3714
1	1656	3715
1	1640	3716
1	1628	3717
1	1622	3718
1	1619	3719
1	1613	3720
1	1621	3721
1	1644	3722
1	1672	3723
1	1699	3724
1	1737	3725
1	1779	3726
1	1817	3727
1	1842	3728
1	1855	3729
1	1862	3730
1	1856	3731
1	1842	3732
1	1826	3733
1	1811	3734
1	1795	3735
1	1782	3736
1	1773	3737
1	1752	3738
1	1736	3739
1	1715	3740
1	1698	3741
1	1685	3742
1	1674	3743
1	1668	3744
1	1671	3745
1	1681	3746
1	1691	3747
1	1708	3748
1	1729	3749
1	1738	3750
1	1746	3751
1	1757	3752
1	1759	3753
1	1752	3754
1	1747	3755
1	1738	3756
1	1727	3757
1	1712	3758
1	1692	3759
1	1682	3760
1	1674	3761
1	1677	3762
1	1697	3763
1	1716	3764
1	1738	3765
1	1751	3766
1	1755	3767
1	1760	3768
1	1753	3769
1	1742	3770
1	1724	3771
1	1706	3772
1	1684	3773
1	1656	3774
1	1634	3775
1	1616	3776
1	1597	3777
1	1589	3778
1	1591	3779
1	1589	3780
1	1600	3781
1	1613	3782
1	1638	3783
1	1677	3784
1	1733	3785
1	1803	3786
1	1890	3787
1	1985	3788
1	2070	3789
1	2152	3790
1	2219	3791
1	2281	3792
1	2332	3793
1	2353	3794
1	2366	3795
1	2370	3796
1	2378	3797
1	2380	3798
1	2384	3799
1	2394	3800
1	2419	3801
1	2450	3802
1	2488	3803
1	2513	3804
1	2535	3805
1	2562	3806
1	2583	3807
1	2596	3808
1	2605	3809
1	2592	3810
1	2568	3811
1	2527	3812
1	2477	3813
1	2402	3814
1	2314	3815
1	2222	3816
1	2127	3817
1	2032	3818
1	1935	3819
1	1843	3820
1	1757	3821
1	1683	3822
1	1620	3823
1	1577	3824
1	1544	3825
1	1525	3826
1	1524	3827
1	1518	3828
1	1529	3829
1	1544	3830
1	1560	3831
1	1580	3832
1	1595	3833
1	1608	3834
1	1625	3835
1	1641	3836
1	1652	3837
1	1657	3838
1	1652	3839
1	1645	3840
1	1634	3841
1	1624	3842
1	1620	3843
1	1618	3844
1	1618	3845
1	1625	3846
1	1629	3847
1	1629	3848
1	1631	3849
1	1634	3850
1	1634	3851
1	1625	3852
1	1607	3853
1	1580	3854
1	1554	3855
1	1537	3856
1	1526	3857
1	1526	3858
1	1539	3859
1	1562	3860
1	1594	3861
1	1623	3862
1	1654	3863
1	1677	3864
1	1699	3865
1	1712	3866
1	1719	3867
1	1728	3868
1	1739	3869
1	1743	3870
1	1739	3871
1	1738	3872
1	1727	3873
1	1706	3874
1	1678	3875
1	1649	3876
1	1616	3877
1	1590	3878
1	1568	3879
1	1553	3880
1	1550	3881
1	1555	3882
1	1577	3883
1	1595	3884
1	1618	3885
1	1644	3886
1	1672	3887
1	1698	3888
1	1721	3889
1	1734	3890
1	1737	3891
1	1733	3892
1	1720	3893
1	1699	3894
1	1686	3895
1	1675	3896
1	1665	3897
1	1660	3898
1	1661	3899
1	1662	3900
1	1669	3901
1	1673	3902
1	1684	3903
1	1696	3904
1	1702	3905
1	1706	3906
1	1702	3907
1	1693	3908
1	1665	3909
1	1636	3910
1	1607	3911
1	1581	3912
1	1564	3913
1	1538	3914
1	1517	3915
1	1504	3916
1	1502	3917
1	1501	3918
1	1503	3919
1	1503	3920
1	1512	3921
1	1512	3922
1	1517	3923
1	1524	3924
1	1528	3925
1	1538	3926
1	1561	3927
1	1594	3928
1	1631	3929
1	1665	3930
1	1692	3931
1	1716	3932
1	1726	3933
1	1735	3934
1	1742	3935
1	1752	3936
1	1763	3937
1	1769	3938
1	1775	3939
1	1782	3940
1	1790	3941
1	1791	3942
1	1790	3943
1	1790	3944
1	1786	3945
1	1782	3946
1	1778	3947
1	1765	3948
1	1747	3949
1	1724	3950
1	1697	3951
1	1665	3952
1	1634	3953
1	1594	3954
1	1562	3955
1	1538	3956
1	1520	3957
1	1523	3958
1	1524	3959
1	1529	3960
1	1544	3961
1	1574	3962
1	1607	3963
1	1644	3964
1	1674	3965
1	1705	3966
1	1730	3967
1	1750	3968
1	1760	3969
1	1772	3970
1	1785	3971
1	1795	3972
1	1815	3973
1	1814	3974
1	1803	3975
1	1782	3976
1	1764	3977
1	1752	3978
1	1750	3979
1	1751	3980
1	1762	3981
1	1773	3982
1	1782	3983
1	1788	3984
1	1787	3985
1	1782	3986
1	1782	3987
1	1782	3988
1	1773	3989
1	1760	3990
1	1744	3991
1	1733	3992
1	1718	3993
1	1704	3994
1	1693	3995
1	1686	3996
1	1688	3997
1	1692	3998
1	1690	3999
1	1698	4000
1	1712	4001
1	1719	4002
1	1733	4003
1	1757	4004
1	1781	4005
1	1815	4006
1	1848	4006
1	1888	4008
1	1921	4009
1	1936	4010
1	1939	4011
1	1932	4012
1	1913	4013
1	1895	4014
1	1892	4014
1	1884	4016
1	1865	4017
1	1848	4018
1	1830	4019
1	1815	4020
1	1803	4021
1	1791	4022
1	1791	4022
1	1782	4024
1	1776	4025
1	1770	4026
1	1769	4027
1	1773	4028
1	1778	4029
1	1777	4030
1	1764	4030
1	1749	4032
1	1724	4033
1	1697	4034
1	1681	4035
1	1672	4036
1	1672	4037
1	1675	4038
1	1686	4038
1	1699	4040
1	1708	4041
1	1712	4042
1	1721	4043
1	1729	4044
1	1737	4045
1	1738	4046
1	1737	4046
1	1731	4048
1	1733	4049
1	1729	4050
1	1717	4051
1	1701	4052
1	1680	4053
1	1657	4054
1	1634	4054
1	1616	4056
1	1602	4057
1	1586	4058
1	1569	4059
1	1556	4060
1	1549	4061
1	1540	4062
1	1551	4062
1	1557	4064
1	1566	4065
1	1570	4066
1	1567	4067
1	1567	4068
1	1566	4069
1	1556	4070
1	1542	4070
1	1521	4072
1	1502	4073
1	1476	4074
1	1450	4075
1	1418	4076
1	1382	4077
1	1359	4078
1	1348	4078
1	1346	4080
1	1359	4081
1	1391	4082
1	1430	4083
1	1480	4084
1	1530	4085
1	1580	4086
1	1618	4086
1	1642	4088
1	1648	4089
1	1650	4090
1	1646	4091
1	1634	4092
1	1615	4093
1	1581	4094
1	1546	4094
1	1502	4096
1	1450	4097
1	1408	4098
1	1369	4099
1	1347	4100
1	1337	4101
1	1336	4102
1	1345	4103
1	1354	4104
1	1372	4105
1	1400	4106
1	1431	4107
1	1467	4108
1	1493	4109
1	1517	4110
1	1533	4111
1	1540	4112
1	1542	4113
1	1528	4114
1	1502	4115
1	1467	4116
1	1434	4117
1	1412	4118
1	1398	4119
1	1392	4120
1	1396	4121
1	1410	4122
1	1437	4123
1	1476	4124
1	1514	4125
1	1539	4126
1	1569	4127
1	1593	4128
1	1603	4129
1	1607	4130
1	1608	4131
1	1603	4132
1	1590	4133
1	1567	4134
1	1539	4135
1	1507	4136
1	1479	4137
1	1456	4138
1	1433	4139
1	1420	4140
1	1414	4141
1	1405	4142
1	1402	4143
1	1410	4144
1	1431	4145
1	1458	4146
1	1482	4147
1	1503	4148
1	1514	4149
1	1530	4150
1	1539	4151
1	1536	4152
1	1526	4153
1	1508	4154
1	1493	4155
1	1476	4156
1	1462	4157
1	1448	4158
1	1434	4159
1	1425	4160
1	1428	4161
1	1437	4162
1	1449	4163
1	1455	4164
1	1464	4165
1	1476	4166
1	1490	4167
1	1512	4168
1	1521	4169
1	1525	4170
1	1524	4171
1	1516	4172
1	1499	4173
1	1476	4174
1	1451	4175
1	1436	4176
1	1424	4177
1	1420	4178
1	1416	4179
1	1422	4180
1	1425	4181
1	1436	4182
1	1456	4183
1	1476	4184
1	1495	4185
1	1511	4186
1	1526	4187
1	1533	4188
1	1539	4189
1	1536	4190
1	1528	4191
1	1508	4192
1	1484	4193
1	1452	4194
1	1428	4195
1	1409	4196
1	1397	4197
1	1383	4198
1	1395	4199
1	1408	4200
1	1433	4201
1	1463	4202
1	1503	4203
1	1549	4204
1	1589	4205
1	1623	4206
1	1654	4207
1	1678	4208
1	1685	4209
1	1685	4210
1	1664	4211
1	1634	4212
1	1593	4213
1	1541	4214
1	1481	4215
1	1427	4216
1	1380	4217
1	1346	4218
1	1331	4219
1	1332	4220
1	1346	4221
1	1368	4222
1	1396	4223
1	1418	4224
1	1432	4225
1	1440	4226
1	1449	4227
1	1450	4228
1	1447	4229
1	1440	4230
1	1437	4231
1	1428	4232
1	1420	4233
1	1398	4234
1	1369	4235
1	1339	4236
1	1321	4237
1	1319	4238
1	1327	4239
1	1348	4240
1	1382	4241
1	1427	4242
1	1469	4243
1	1498	4244
1	1518	4245
1	1535	4246
1	1550	4247
1	1555	4248
1	1550	4249
1	1536	4250
1	1503	4251
1	1463	4252
1	1420	4253
1	1361	4254
1	1319	4255
1	1293	4256
1	1281	4257
1	1297	4258
1	1328	4259
1	1361	4260
1	1399	4261
1	1437	4262
1	1472	4263
1	1503	4264
1	1528	4265
1	1541	4266
1	1546	4267
1	1551	4268
1	1548	4269
1	1535	4270
1	1515	4271
1	1492	4272
1	1476	4273
1	1454	4274
1	1437	4275
1	1427	4276
1	1430	4277
1	1442	4278
1	1458	4279
1	1482	4280
1	1515	4281
1	1539	4282
1	1555	4283
1	1563	4284
1	1568	4285
1	1568	4286
1	1562	4287
1	1555	4288
1	1535	4289
1	1508	4290
1	1476	4291
1	1439	4292
1	1403	4293
1	1372	4294
1	1350	4295
1	1344	4296
1	1345	4297
1	1345	4298
1	1334	4299
1	1329	4300
1	1323	4301
1	1328	4302
1	1344	4303
1	1369	4304
1	1398	4305
1	1425	4306
1	1456	4307
1	1479	4308
1	1494	4309
1	1495	4310
1	1494	4311
1	1490	4312
1	1476	4313
1	1453	4314
1	1435	4315
1	1418	4316
1	1398	4317
1	1382	4318
1	1368	4319
1	1356	4320
1	1346	4321
1	1344	4322
1	1339	4323
1	1340	4324
1	1346	4325
1	1369	4326
1	1395	4327
1	1415	4328
1	1436	4329
1	1450	4330
1	1461	4331
1	1467	4332
1	1469	4333
1	1461	4334
1	1450	4335
1	1436	4336
1	1428	4337
1	1418	4338
1	1412	4339
1	1410	4340
1	1410	4341
1	1421	4342
1	1443	4343
1	1472	4344
1	1499	4345
1	1529	4346
1	1555	4347
1	1583	4348
1	1589	4349
1	1582	4350
1	1566	4351
1	1545	4352
1	1521	4353
1	1484	4354
1	1446	4355
1	1409	4356
1	1382	4357
1	1370	4358
1	1359	4359
1	1364	4360
1	1376	4361
1	1402	4362
1	1437	4363
1	1474	4364
1	1503	4365
1	1533	4366
1	1559	4367
1	1581	4368
1	1598	4369
1	1603	4370
1	1593	4371
1	1571	4372
1	1544	4373
1	1517	4374
1	1494	4375
1	1472	4376
1	1446	4377
1	1422	4378
1	1395	4379
1	1376	4380
1	1391	4381
1	1409	4382
1	1439	4383
1	1476	4384
1	1508	4385
1	1535	4386
1	1555	4387
1	1572	4388
1	1574	4389
1	1576	4390
1	1564	4391
1	1551	4392
1	1541	4393
1	1529	4394
1	1521	4395
1	1512	4396
1	1503	4397
1	1491	4398
1	1479	4399
1	1462	4400
1	1445	4401
1	1437	4402
1	1437	4403
1	1442	4404
1	1451	4405
1	1476	4406
1	1499	4407
1	1519	4408
1	1530	4409
1	1531	4410
1	1526	4411
1	1515	4412
1	1499	4413
1	1489	4414
1	1481	4415
1	1481	4416
1	1487	4417
1	1499	4418
1	1503	4419
1	1487	4440
1	1504	4441
1	1528	4442
1	1544	4443
1	1568	4444
1	1584	4445
1	1587	4446
1	1573	4447
1	1554	4448
1	1519	4449
1	1497	4450
1	1479	4451
1	1472	4452
1	1474	4453
1	1475	4454
1	1479	4455
1	1489	4456
1	1492	4457
1	1487	4458
1	1484	4459
1	1518	4440
1	1530	4441
1	1546	4442
1	1561	4443
1	1586	4444
1	1607	4445
1	1625	4446
1	1637	4447
1	1647	4448
1	1634	4449
1	1610	4450
1	1582	4451
1	1558	4452
1	1533	4453
1	1503	4454
1	1481	4455
1	1467	4456
1	1462	4457
1	1466	4458
1	1476	4459
1	1481	4460
1	1482	4461
1	1490	4462
1	1503	4463
1	1520	4464
1	1541	4465
1	1559	4466
1	1581	4467
1	1607	4468
1	1618	4469
1	1616	4470
1	1607	4471
1	1589	4472
1	1569	4473
1	1549	4474
1	1529	4475
1	1508	4476
1	1486	4477
1	1463	4478
1	1437	4479
1	1424	4480
1	1429	4481
1	1441	4482
1	1463	4483
1	1482	4484
1	1503	4485
1	1529	4486
1	1555	4487
1	1580	4488
1	1590	4489
1	1596	4490
1	1597	4491
1	1585	4492
1	1567	4493
1	1542	4494
1	1526	4495
1	1507	4496
1	1492	4497
1	1476	4498
1	1476	4499
1	1476	4500
1	1484	4501
1	1497	4502
1	1515	4503
1	1536	4504
1	1555	4505
1	1566	4506
1	1571	4507
1	1573	4508
1	1559	4509
1	1553	4510
1	1543	4511
1	1534	4512
1	1526	4513
1	1503	4514
1	1476	4515
1	1446	4516
1	1421	4517
1	1409	4518
1	1407	4519
1	1395	4540
1	1392	4541
1	1400	4542
1	1424	4543
1	1450	4544
1	1484	4545
1	1517	4546
1	1554	4547
1	1583	4548
1	1607	4549
1	1611	4550
1	1619	4551
1	1620	4552
1	1613	4553
1	1594	4554
1	1577	4555
1	1555	4556
1	1534	4557
1	1521	4558
1	1505	4559
1	1415	4520
1	1424	4521
1	1433	4522
1	1449	4523
1	1468	4524
1	1486	4525
1	1506	4526
1	1532	4527
1	1553	4528
1	1565	4529
1	1570	4530
1	1566	4531
1	1557	4532
1	1542	4533
1	1521	4534
1	1496	4535
1	1468	4536
1	1443	4537
1	1424	4538
1	1404	4539
1	1489	4580
1	1490	4581
1	1501	4582
1	1513	4583
1	1530	4584
1	1544	4585
1	1555	4586
1	1555	4587
1	1555	4588
1	1548	4589
1	1539	4590
1	1524	4591
1	1494	4592
1	1464	4593
1	1436	4594
1	1409	4595
1	1384	4596
1	1369	4597
1	1367	4598
1	1373	4599
1	1499	4580
1	1491	4581
1	1484	4582
1	1484	4583
1	1485	4584
1	1484	4585
1	1477	4586
1	1477	4587
1	1486	4588
1	1492	4589
1	1508	4590
1	1526	4591
1	1533	4592
1	1536	4593
1	1528	4594
1	1512	4595
1	1502	4596
1	1493	4597
1	1490	4598
1	1488	4599
1	1383	4600
1	1399	4601
1	1411	4602
1	1434	4603
1	1453	4604
1	1477	4605
1	1507	4606
1	1536	4607
1	1555	4608
1	1569	4609
1	1578	4610
1	1584	4611
1	1593	4612
1	1607	4613
1	1621	4614
1	1648	4615
1	1683	4616
1	1719	4617
1	1766	4618
1	1818	4619
1	1868	4620
1	1908	4621
1	1962	4622
1	2014	4623
1	2055	4624
1	2090	4625
1	2114	4626
1	2130	4627
1	2144	4628
1	2157	4629
1	2168	4630
1	2170	4631
1	2173	4632
1	2183	4633
1	2196	4634
1	2215	4635
1	2237	4636
1	2258	4637
1	2262	4638
1	2262	4639
1	2252	4640
1	2232	4641
1	2199	4642
1	2176	4643
1	2150	4644
1	2120	4645
1	2084	4646
1	2039	4647
1	1982	4648
1	1913	4649
1	1832	4650
1	1739	4651
1	1655	4652
1	1566	4653
1	1476	4654
1	1400	4655
1	1323	4656
1	1260	4657
1	1213	4658
1	1180	4659
1	1170	4660
1	1172	4661
1	1178	4662
1	1206	4663
1	1240	4664
1	1289	4665
1	1347	4666
1	1419	4667
1	1482	4668
1	1541	4669
1	1585	4670
1	1621	4671
1	1639	4672
1	1646	4673
1	1634	4674
1	1629	4675
1	1619	4676
1	1607	4677
1	1603	4678
1	1599	4679
1	1599	4680
1	1598	4681
1	1603	4682
1	1611	4683
1	1620	4684
1	1613	4685
1	1598	4686
1	1580	4687
1	1562	4688
1	1543	4689
1	1529	4690
1	1513	4691
1	1502	4692
1	1489	4693
1	1476	4694
1	1465	4695
1	1456	4696
1	1446	4697
1	1436	4698
1	1433	4699
1	1436	4700
1	1448	4701
1	1466	4702
1	1490	4703
1	1507	4704
1	1534	4705
1	1555	4706
1	1579	4707
1	1596	4708
1	1598	4709
1	1600	4710
1	1599	4711
1	1600	4712
1	1602	4713
1	1593	4714
1	1579	4715
1	1557	4716
1	1541	4717
1	1528	4718
1	1505	4719
1	1490	4720
1	1476	4721
1	1468	4722
1	1470	4723
1	1482	4724
1	1503	4725
1	1525	4726
1	1555	4727
1	1574	4728
1	1592	4729
1	1602	4730
1	1600	4731
1	1593	4732
1	1586	4733
1	1579	4734
1	1567	4735
1	1557	4736
1	1549	4737
1	1530	4738
1	1513	4739
1	1503	4740
1	1505	4741
1	1526	4742
1	1543	4743
1	1559	4744
1	1579	4745
1	1602	4746
1	1638	4747
1	1674	4748
1	1701	4749
1	1728	4750
1	1747	4751
1	1755	4752
1	1757	4753
1	1747	4754
1	1733	4755
1	1704	4756
1	1672	4757
1	1639	4758
1	1611	4759
1	1593	4760
1	1583	4761
1	1582	4762
1	1586	4763
1	1582	4764
1	1582	4765
1	1580	4766
1	1582	4767
1	1587	4768
1	1581	4769
1	1570	4770
1	1552	4771
1	1532	4772
1	1518	4773
1	1507	4774
1	1503	4775
1	1508	4776
1	1515	4777
1	1525	4778
1	1529	4779
1	1544	4780
1	1571	4781
1	1605	4782
1	1645	4783
1	1679	4784
1	1711	4785
1	1738	4786
1	1762	4787
1	1777	4788
1	1786	4789
1	1790	4790
1	1787	4791
1	1778	4792
1	1760	4793
1	1728	4794
1	1700	4795
1	1669	4796
1	1652	4797
1	1648	4798
1	1647	4799
1	1656	4800
1	1670	4801
1	1692	4802
1	1715	4803
1	1738	4804
1	1752	4805
1	1766	4806
1	1778	4807
1	1786	4808
1	1780	4809
1	1786	4810
1	1787	4811
1	1789	4812
1	1795	4813
1	1796	4814
1	1796	4815
1	1799	4816
1	1809	4817
1	1818	4818
1	1837	4819
1	1851	4820
1	1852	4821
1	1857	4822
1	1859	4823
1	1862	4824
1	1867	4825
1	1870	4826
1	1878	4827
1	1881	4828
1	1872	4829
1	1856	4830
1	1830	4831
1	1798	4832
1	1773	4833
1	1742	4834
1	1709	4835
1	1664	4836
1	1625	4837
1	1597	4838
1	1581	4839
1	1585	4840
1	1607	4841
1	1645	4842
1	1697	4843
1	1755	4844
1	1803	4845
1	1846	4846
1	1882	4847
1	1921	4848
1	1952	4849
1	1974	4850
1	1987	4851
1	1998	4852
1	1988	4853
1	1953	4854
1	1922	4855
1	1885	4856
1	1852	4857
1	1818	4858
1	1783	4859
1	1617	4880
1	1626	4881
1	1636	4882
1	1659	4883
1	1683	4884
1	1706	4885
1	1721	4886
1	1728	4887
1	1732	4888
1	1728	4889
1	1726	4890
1	1724	4891
1	1710	4892
1	1680	4893
1	1637	4894
1	1594	4895
1	1547	4896
1	1503	4897
1	1472	4898
1	1450	4899
1	1759	4860
1	1738	4861
1	1730	4862
1	1726	4863
1	1729	4864
1	1740	4865
1	1751	4866
1	1752	4867
1	1749	4868
1	1729	4869
1	1715	4870
1	1690	4871
1	1665	4872
1	1640	4873
1	1632	4874
1	1616	4875
1	1607	4876
1	1605	4877
1	1606	4878
1	1609	4879
1	1437	4900
1	1424	4901
1	1415	4902
1	1417	4903
1	1422	4904
1	1428	4905
1	1440	4906
1	1461	4907
1	1488	4908
1	1511	4909
1	1530	4910
1	1542	4911
1	1543	4912
1	1530	4913
1	1503	4914
1	1476	4915
1	1443	4916
1	1413	4917
1	1393	4918
1	1369	4919
1	1358	4920
1	1358	4921
1	1368	4922
1	1398	4923
1	1427	4924
1	1466	4925
1	1511	4926
1	1548	4927
1	1572	4928
1	1586	4929
1	1593	4930
1	1594	4931
1	1592	4932
1	1580	4933
1	1560	4934
1	1540	4935
1	1516	4936
1	1499	4937
1	1476	4938
1	1461	4939
1	1453	4940
1	1446	4941
1	1443	4942
1	1451	4943
1	1458	4944
1	1469	4945
1	1485	4946
1	1499	4947
1	1508	4948
1	1503	4949
1	1502	4950
1	1494	4951
1	1485	4952
1	1476	4953
1	1459	4954
1	1441	4955
1	1425	4956
1	1413	4957
1	1407	4958
1	1398	4959
1	1398	4980
1	1403	4981
1	1422	4982
1	1450	4983
1	1491	4984
1	1538	4985
1	1580	4986
1	1607	4987
1	1621	4988
1	1607	4989
1	1579	4990
1	1539	4991
1	1503	4992
1	1466	4993
1	1435	4994
1	1407	4995
1	1373	4996
1	1354	4997
1	1350	4998
1	1348	4999
1	1359	4980
1	1373	4981
1	1397	4982
1	1418	4983
1	1441	4984
1	1466	4985
1	1491	4986
1	1519	4987
1	1538	4988
1	1541	4989
1	1544	4990
1	1539	4991
1	1527	4992
1	1520	4993
1	1503	4994
1	1485	4995
1	1463	4996
1	1446	4997
1	1437	4998
1	1437	4999
1	1442	5000
1	1451	5001
1	1463	5002
1	1475	5003
1	1481	5004
1	1497	5005
1	1508	5006
1	1526	5007
1	1547	5008
1	1565	5009
1	1581	5010
1	1586	5011
1	1584	5012
1	1566	5013
1	1548	5014
1	1537	5015
1	1520	5016
1	1494	5017
1	1476	5018
1	1453	5019
1	1445	5020
1	1448	5021
1	1454	5022
1	1469	5023
1	1486	5024
1	1498	5025
1	1505	5026
1	1503	5027
1	1507	5028
1	1506	5029
1	1517	5030
1	1528	5031
1	1529	5032
1	1529	5033
1	1526	5034
1	1529	5035
1	1530	5036
1	1529	5037
1	1529	5038
1	1528	5039
1	1524	5040
1	1521	5041
1	1529	5042
1	1531	5043
1	1530	5044
1	1529	5045
1	1527	5046
1	1529	5047
1	1533	5048
1	1530	5049
1	1529	5050
1	1530	5051
1	1539	5052
1	1553	5053
1	1556	5054
1	1563	5055
1	1576	5056
1	1586	5057
1	1593	5058
1	1594	5059
1	1583	5060
1	1576	5061
1	1572	5062
1	1575	5063
1	1574	5064
1	1581	5065
1	1585	5066
1	1585	5067
1	1581	5068
1	1556	5069
1	1530	5070
1	1503	5071
1	1476	5072
1	1456	5073
1	1445	5074
1	1437	5075
1	1437	5076
1	1437	5077
1	1438	5078
1	1438	5079
1	1450	5080
1	1467	5081
1	1492	5082
1	1523	5083
1	1548	5084
1	1564	5085
1	1574	5086
1	1584	5087
1	1592	5088
1	1593	5089
1	1594	5090
1	1590	5091
1	1575	5092
1	1550	5093
1	1520	5094
1	1497	5095
1	1478	5096
1	1475	5097
1	1480	5098
1	1484	5099
1	1490	5100
1	1503	5101
1	1523	5102
1	1543	5103
1	1564	5104
1	1584	5105
1	1605	5106
1	1621	5107
1	1634	5108
1	1636	5109
1	1642	5110
1	1642	5111
1	1643	5112
1	1647	5113
1	1634	5114
1	1618	5115
1	1594	5116
1	1567	5117
1	1543	5118
1	1528	5119
1	1520	5140
1	1527	5141
1	1536	5142
1	1557	5143
1	1574	5144
1	1585	5145
1	1602	5146
1	1625	5147
1	1643	5148
1	1651	5149
1	1647	5150
1	1629	5151
1	1606	5152
1	1577	5153
1	1543	5154
1	1521	5155
1	1499	5156
1	1476	5157
1	1476	5158
1	1484	5159
1	1513	5120
1	1494	5121
1	1476	5122
1	1467	5123
1	1471	5124
1	1476	5125
1	1479	5126
1	1489	5127
1	1494	5128
1	1502	5129
1	1507	5130
1	1511	5131
1	1512	5132
1	1512	5133
1	1507	5134
1	1504	5135
1	1503	5136
1	1503	5137
1	1508	5138
1	1511	5139
1	1490	5180
1	1498	5181
1	1508	5182
1	1530	5183
1	1555	5184
1	1579	5185
1	1600	5186
1	1616	5187
1	1634	5188
1	1643	5189
1	1649	5190
1	1649	5191
1	1648	5192
1	1647	5193
1	1634	5194
1	1620	5195
1	1607	5196
1	1600	5197
1	1594	5198
1	1589	5199
1	1503	5160
1	1523	5161
1	1542	5162
1	1561	5163
1	1579	5164
1	1595	5165
1	1615	5166
1	1634	5167
1	1647	5168
1	1656	5169
1	1665	5170
1	1666	5171
1	1647	5172
1	1616	5173
1	1575	5174
1	1541	5175
1	1515	5176
1	1501	5177
1	1491	5178
1	1490	5179
1	1591	5200
1	1598	5201
1	1607	5202
1	1636	5203
1	1665	5204
1	1689	5205
1	1708	5206
1	1715	5207
1	1721	5208
1	1715	5209
1	1710	5210
1	1699	5211
1	1686	5212
1	1661	5213
1	1628	5214
1	1602	5215
1	1579	5216
1	1556	5217
1	1547	5218
1	1542	5219
1	1548	5220
1	1553	5221
1	1557	5222
1	1573	5223
1	1571	5224
1	1574	5225
1	1581	5226
1	1587	5227
1	1589	5228
1	1585	5229
1	1590	5230
1	1586	5231
1	1584	5232
1	1575	5233
1	1554	5234
1	1539	5235
1	1530	5236
1	1533	5237
1	1547	5238
1	1571	5239
1	1593	5240
1	1608	5241
1	1629	5242
1	1646	5243
1	1664	5244
1	1680	5245
1	1691	5246
1	1710	5247
1	1718	5248
1	1713	5249
1	1699	5250
1	1671	5251
1	1642	5252
1	1615	5253
1	1580	5254
1	1551	5255
1	1525	5256
1	1502	5257
1	1482	5258
1	1469	5259
1	1463	5260
1	1463	5261
1	1472	5262
1	1489	5263
1	1506	5264
1	1534	5265
1	1568	5266
1	1607	5267
1	1644	5268
1	1672	5269
1	1686	5270
1	1685	5271
1	1680	5272
1	1665	5273
1	1633	5274
1	1602	5275
1	1571	5276
1	1544	5277
1	1530	5278
1	1523	5279
1	1525	5280
1	1530	5281
1	1542	5282
1	1557	5283
1	1584	5284
1	1607	5285
1	1626	5286
1	1642	5287
1	1657	5288
1	1660	5289
1	1661	5290
1	1660	5291
1	1647	5292
1	1626	5293
1	1597	5294
1	1569	5295
1	1544	5296
1	1525	5297
1	1503	5298
1	1492	5299
1	1487	5300
1	1488	5301
1	1490	5302
1	1502	5303
1	1520	5304
1	1542	5305
1	1564	5306
1	1579	5307
1	1592	5308
1	1599	5309
1	1605	5310
1	1607	5311
1	1608	5312
1	1606	5313
1	1593	5314
1	1580	5315
1	1570	5316
1	1563	5317
1	1561	5318
1	1565	5319
1	1574	5320
1	1585	5321
1	1592	5322
1	1591	5323
1	1592	5324
1	1584	5325
1	1583	5326
1	1588	5327
1	1594	5328
1	1590	5329
1	1577	5330
1	1556	5331
1	1530	5332
1	1516	5333
1	1504	5334
1	1499	5335
1	1494	5336
1	1490	5337
1	1487	5338
1	1482	5339
1	1478	5340
1	1485	5341
1	1503	5342
1	1532	5343
1	1568	5344
1	1605	5345
1	1636	5346
1	1664	5347
1	1686	5348
1	1699	5349
1	1712	5350
1	1727	5351
1	1740	5352
1	1755	5353
1	1760	5354
1	1752	5355
1	1738	5356
1	1705	5357
1	1660	5358
1	1625	5359
1	1594	5360
1	1570	5361
1	1556	5362
1	1544	5363
1	1529	5364
1	1517	5365
1	1515	5366
1	1517	5367
1	1527	5368
1	1528	5369
1	1528	5370
1	1524	5371
1	1515	5372
1	1506	5373
1	1505	5374
1	1513	5375
1	1529	5376
1	1553	5377
1	1589	5378
1	1634	5379
1	1691	5380
1	1747	5381
1	1801	5382
1	1862	5383
1	1917	5384
1	1976	5385
1	2037	5386
1	2094	5387
1	2144	5388
1	2183	5389
1	2214	5390
1	2237	5391
1	2248	5392
1	2248	5393
1	2234	5394
1	2220	5395
1	2210	5396
1	2210	5397
1	2219	5398
1	2233	5399
1	2250	5400
1	2272	5401
1	2293	5402
1	2316	5403
1	2336	5404
1	2345	5405
1	2348	5406
1	2338	5407
1	2313	5408
1	2271	5409
1	2228	5410
1	2170	5411
1	2106	5412
1	2045	5413
1	1970	5414
1	1891	5415
1	1809	5416
1	1736	5417
1	1674	5418
1	1625	5419
1	1576	5420
1	1529	5421
1	1493	5422
1	1482	5423
1	1499	5424
1	1526	5425
1	1561	5426
1	1594	5427
1	1611	5428
1	1616	5429
1	1607	5430
1	1602	5431
1	1581	5432
1	1557	5433
1	1542	5434
1	1530	5435
1	1521	5436
1	1511	5437
1	1505	5438
1	1503	5439
1	1508	5440
1	1524	5441
1	1540	5442
1	1564	5443
1	1584	5444
1	1606	5445
1	1623	5446
1	1639	5447
1	1659	5448
1	1683	5449
1	1703	5450
1	1719	5451
1	1721	5452
1	1711	5453
1	1683	5454
1	1656	5455
1	1626	5456
1	1599	5457
1	1581	5458
1	1571	5459
1	1569	5460
1	1572	5461
1	1571	5462
1	1574	5463
1	1581	5464
1	1593	5465
1	1610	5466
1	1634	5467
1	1654	5468
1	1663	5469
1	1670	5470
1	1669	5471
1	1660	5472
1	1649	5473
1	1620	5474
1	1585	5475
1	1555	5476
1	1530	5477
1	1512	5478
1	1508	5479
1	1513	5480
1	1525	5481
1	1541	5482
1	1557	5483
1	1577	5484
1	1600	5485
1	1624	5486
1	1647	5487
1	1664	5488
1	1674	5489
1	1671	5490
1	1657	5491
1	1643	5492
1	1628	5493
1	1608	5494
1	1596	5495
1	1587	5496
1	1585	5497
1	1589	5498
1	1593	5499
1	1602	5500
1	1612	5501
1	1630	5502
1	1649	5503
1	1657	5504
1	1664	5505
1	1677	5506
1	1686	5507
1	1690	5508
1	1685	5509
1	1665	5510
1	1649	5511
1	1630	5512
1	1607	5513
1	1579	5514
1	1553	5515
1	1530	5516
1	1518	5517
1	1521	5518
1	1535	5519
1	1558	5520
1	1582	5521
1	1625	5522
1	1683	5523
1	1728	5524
1	1765	5525
1	1788	5526
1	1791	5527
1	1791	5528
1	1782	5529
1	1764	5530
1	1746	5531
1	1719	5532
1	1692	5533
1	1676	5534
1	1673	5535
1	1671	5536
1	1674	5537
1	1681	5538
1	1680	5539
1	1681	5540
1	1691	5541
1	1706	5542
1	1720	5543
1	1730	5544
1	1749	5545
1	1765	5546
1	1778	5547
1	1791	5548
1	1793	5549
1	1790	5550
1	1777	5551
1	1760	5552
1	1738	5553
1	1712	5554
1	1686	5555
1	1656	5556
1	1639	5557
1	1631	5558
1	1625	5559
1	1635	5560
1	1660	5561
1	1688	5562
1	1727	5563
1	1760	5564
1	1786	5565
1	1809	5566
1	1827	5567
1	1841	5568
1	1845	5569
1	1850	5570
1	1852	5571
1	1848	5572
1	1843	5573
1	1822	5574
1	1814	5575
1	1801	5576
1	1796	5577
1	1808	5578
1	1814	5579
1	1818	5580
1	1817	5581
1	1802	5582
1	1792	5583
1	1789	5584
1	1775	5585
1	1772	5586
1	1778	5587
1	1782	5588
1	1767	5589
1	1764	5590
1	1759	5591
1	1761	5592
1	1770	5593
1	1774	5594
1	1779	5595
1	1790	5596
1	1814	5597
1	1836	5598
1	1865	5599
1	1899	5600
1	1932	5601
1	1957	5602
1	1973	5603
1	1975	5604
1	1980	5605
1	1975	5606
1	1961	5607
1	1948	5608
1	1931	5609
1	1914	5610
1	1895	5611
1	1872	5612
1	1843	5613
1	1809	5614
1	1773	5615
1	1749	5616
1	1737	5617
1	1729	5618
1	1726	5619
1	1741	5620
1	1763	5621
1	1777	5622
1	1800	5623
1	1834	5624
1	1854	5625
1	1874	5626
1	1890	5627
1	1898	5628
1	1904	5629
1	1903	5630
1	1895	5631
1	1885	5632
1	1869	5633
1	1850	5634
1	1836	5635
1	1819	5636
1	1801	5637
1	1783	5638
1	1783	5639
1	1782	5640
1	1778	5641
1	1773	5642
1	1769	5643
1	1769	5644
1	1773	5645
1	1769	5646
1	1764	5647
1	1759	5648
1	1747	5649
1	1733	5650
1	1707	5651
1	1678	5652
1	1655	5653
1	1628	5654
1	1608	5655
1	1593	5656
1	1570	5657
1	1551	5658
1	1546	5659
1	1555	5660
1	1566	5661
1	1581	5662
1	1594	5663
1	1607	5664
1	1621	5665
1	1633	5666
1	1634	5667
1	1629	5668
1	1623	5669
1	1621	5670
1	1616	5671
1	1607	5672
1	1594	5673
1	1571	5674
1	1541	5675
1	1515	5676
1	1484	5677
1	1446	5678
1	1415	5679
1	1475	5700
1	1481	5701
1	1500	5702
1	1524	5703
1	1546	5704
1	1573	5705
1	1594	5706
1	1613	5707
1	1626	5708
1	1629	5709
1	1631	5710
1	1620	5711
1	1607	5712
1	1595	5713
1	1570	5714
1	1546	5715
1	1519	5716
1	1492	5717
1	1476	5718
1	1463	5719
1	1408	5680
1	1415	5681
1	1437	5682
1	1476	5683
1	1509	5684
1	1541	5685
1	1571	5686
1	1595	5687
1	1613	5688
1	1621	5689
1	1617	5690
1	1607	5691
1	1593	5692
1	1575	5693
1	1546	5694
1	1521	5695
1	1503	5696
1	1491	5697
1	1487	5698
1	1476	5699
1	1450	5720
1	1441	5721
1	1445	5722
1	1456	5723
1	1476	5724
1	1513	5725
1	1553	5726
1	1584	5727
1	1603	5728
1	1610	5729
1	1615	5730
1	1618	5731
1	1610	5732
1	1607	5733
1	1592	5734
1	1576	5735
1	1555	5736
1	1531	5737
1	1511	5738
1	1485	5739
1	1466	5740
1	1455	5741
1	1453	5742
1	1462	5743
1	1469	5744
1	1481	5745
1	1504	5746
1	1533	5747
1	1557	5748
1	1581	5749
1	1596	5750
1	1602	5751
1	1593	5752
1	1579	5753
1	1553	5754
1	1529	5755
1	1508	5756
1	1497	5757
1	1490	5758
1	1489	5759
1	1494	5760
1	1505	5761
1	1529	5762
1	1557	5763
1	1594	5764
1	1628	5765
1	1652	5766
1	1670	5767
1	1681	5768
1	1677	5769
1	1674	5770
1	1667	5771
1	1660	5772
1	1655	5773
1	1643	5774
1	1626	5775
1	1607	5776
1	1585	5777
1	1564	5778
1	1555	5779
1	1603	5800
1	1620	5801
1	1629	5802
1	1643	5803
1	1651	5804
1	1658	5805
1	1661	5806
1	1674	5807
1	1687	5808
1	1703	5809
1	1712	5810
1	1712	5811
1	1701	5812
1	1679	5813
1	1643	5814
1	1607	5815
1	1575	5816
1	1553	5817
1	1539	5818
1	1529	5819
1	1560	5800
1	1572	5801
1	1585	5802
1	1600	5803
1	1607	5804
1	1608	5805
1	1607	5806
1	1612	5807
1	1619	5808
1	1615	5809
1	1608	5810
1	1598	5811
1	1583	5812
1	1566	5813
1	1547	5814
1	1534	5815
1	1531	5816
1	1544	5817
1	1566	5818
1	1584	5819
1	1526	5820
1	1528	5821
1	1541	5822
1	1564	5823
1	1579	5824
1	1601	5825
1	1628	5826
1	1651	5827
1	1660	5828
1	1658	5829
1	1651	5830
1	1638	5831
1	1620	5832
1	1600	5833
1	1581	5834
1	1564	5835
1	1553	5836
1	1540	5837
1	1536	5838
1	1529	5839
1	1526	5840
1	1526	5841
1	1529	5842
1	1542	5843
1	1555	5844
1	1581	5845
1	1616	5846
1	1647	5847
1	1673	5848
1	1677	5849
1	1678	5850
1	1674	5851
1	1668	5852
1	1654	5853
1	1631	5854
1	1602	5855
1	1576	5856
1	1544	5857
1	1521	5858
1	1505	5859
1	1508	5860
1	1524	5861
1	1548	5862
1	1581	5863
1	1607	5864
1	1635	5865
1	1661	5866
1	1688	5867
1	1713	5868
1	1727	5869
1	1729	5870
1	1723	5871
1	1708	5872
1	1687	5873
1	1665	5874
1	1649	5875
1	1636	5876
1	1629	5877
1	1629	5878
1	1624	5879
1	1628	5880
1	1633	5881
1	1638	5882
1	1637	5883
1	1641	5884
1	1644	5885
1	1649	5886
1	1660	5887
1	1667	5888
1	1667	5889
1	1671	5890
1	1672	5891
1	1664	5892
1	1655	5893
1	1632	5894
1	1605	5895
1	1573	5896
1	1554	5897
1	1546	5898
1	1553	5899
1	1566	5900
1	1585	5901
1	1607	5902
1	1631	5903
1	1638	5904
1	1652	5905
1	1665	5906
1	1675	5907
1	1684	5908
1	1682	5909
1	1677	5910
1	1670	5911
1	1657	5912
1	1643	5913
1	1629	5914
1	1616	5915
1	1607	5916
1	1592	5917
1	1580	5918
1	1569	5919
1	1579	5920
1	1602	5921
1	1634	5922
1	1669	5923
1	1710	5924
1	1737	5925
1	1752	5926
1	1754	5927
1	1749	5928
1	1727	5929
1	1708	5930
1	1677	5931
1	1644	5932
1	1611	5933
1	1580	5934
1	1554	5935
1	1533	5936
1	1521	5937
1	1512	5938
1	1500	5939
1	1495	5940
1	1508	5941
1	1531	5942
1	1566	5943
1	1605	5944
1	1645	5945
1	1684	5946
1	1719	5947
1	1744	5948
1	1759	5949
1	1760	5950
1	1741	5951
1	1712	5952
1	1684	5953
1	1660	5954
1	1626	5955
1	1600	5956
1	1577	5957
1	1560	5958
1	1549	5959
1	1547	5960
1	1555	5961
1	1574	5962
1	1593	5963
1	1620	5964
1	1649	5965
1	1670	5966
1	1685	5967
1	1691	5968
1	1697	5969
1	1688	5970
1	1677	5971
1	1659	5972
1	1635	5973
1	1611	5974
1	1589	5975
1	1572	5976
1	1566	5977
1	1571	5978
1	1587	5979
1	1611	5980
1	1643	5981
1	1683	5982
1	1705	5983
1	1713	5984
1	1721	5985
1	1726	5986
1	1721	5987
1	1715	5988
1	1705	5989
1	1692	5990
1	1675	5991
1	1657	5992
1	1634	5993
1	1613	5994
1	1598	5995
1	1581	5996
1	1566	5997
1	1565	5998
1	1571	5999
1	1581	6000
1	1594	6001
1	1611	6002
1	1634	6003
1	1660	6004
1	1686	6005
1	1711	6006
1	1735	6007
1	1746	6008
1	1751	6009
1	1752	6010
1	1751	6011
1	1744	6012
1	1731	6013
1	1705	6014
1	1680	6015
1	1660	6016
1	1647	6017
1	1638	6018
1	1629	6019
1	1620	6020
1	1608	6021
1	1607	6022
1	1607	6023
1	1607	6024
1	1605	6025
1	1609	6026
1	1617	6027
1	1625	6028
1	1636	6029
1	1647	6030
1	1652	6031
1	1659	6032
1	1669	6033
1	1674	6034
1	1679	6035
1	1682	6036
1	1688	6037
1	1693	6038
1	1712	6039
1	1729	6040
1	1744	6041
1	1747	6042
1	1755	6043
1	1751	6044
1	1751	6045
1	1746	6046
1	1744	6047
1	1744	6048
1	1733	6049
1	1711	6050
1	1684	6051
1	1656	6052
1	1625	6053
1	1607	6054
1	1594	6055
1	1589	6056
1	1592	6057
1	1605	6058
1	1612	6059
1	1625	6060
1	1637	6061
1	1651	6062
1	1661	6063
1	1679	6064
1	1697	6065
1	1726	6066
1	1751	6067
1	1764	6068
1	1777	6069
1	1787	6070
1	1787	6071
1	1787	6072
1	1791	6073
1	1793	6074
1	1796	6075
1	1788	6076
1	1764	6077
1	1742	6078
1	1713	6079
1	1551	6100
1	1575	6101
1	1607	6102
1	1648	6103
1	1685	6104
1	1715	6105
1	1751	6106
1	1775	6107
1	1793	6108
1	1814	6109
1	1817	6110
1	1807	6111
1	1773	6112
1	1729	6113
1	1693	6114
1	1660	6115
1	1622	6116
1	1590	6117
1	1562	6118
1	1535	6119
1	1686	6080
1	1660	6081
1	1638	6082
1	1629	6083
1	1634	6084
1	1638	6085
1	1638	6086
1	1638	6087
1	1634	6088
1	1629	6089
1	1618	6090
1	1607	6091
1	1589	6092
1	1566	6093
1	1546	6094
1	1531	6095
1	1527	6096
1	1529	6097
1	1529	6098
1	1535	6099
1	1508	6120
1	1491	6121
1	1494	6122
1	1515	6123
1	1544	6124
1	1585	6125
1	1628	6126
1	1661	6127
1	1687	6128
1	1702	6129
1	1711	6130
1	1712	6131
1	1706	6132
1	1687	6133
1	1662	6134
1	1641	6135
1	1620	6136
1	1597	6137
1	1581	6138
1	1567	6139
1	1569	6140
1	1581	6141
1	1602	6142
1	1626	6143
1	1643	6144
1	1660	6145
1	1675	6146
1	1688	6147
1	1701	6148
1	1700	6149
1	1691	6150
1	1680	6151
1	1660	6152
1	1639	6153
1	1624	6154
1	1607	6155
1	1594	6156
1	1582	6157
1	1567	6158
1	1569	6159
1	1581	6160
1	1600	6161
1	1631	6162
1	1660	6163
1	1686	6164
1	1707	6165
1	1722	6166
1	1736	6167
1	1744	6168
1	1747	6169
1	1748	6170
1	1747	6171
1	1740	6172
1	1720	6173
1	1698	6174
1	1678	6175
1	1654	6176
1	1631	6177
1	1618	6178
1	1606	6179
1	1603	6180
1	1610	6181
1	1631	6182
1	1656	6183
1	1673	6184
1	1685	6185
1	1697	6186
1	1704	6187
1	1704	6188
1	1701	6189
1	1687	6190
1	1665	6191
1	1634	6192
1	1599	6193
1	1553	6194
1	1503	6195
1	1465	6196
1	1445	6197
1	1442	6198
1	1459	6199
1	1494	6200
1	1535	6201
1	1580	6202
1	1631	6203
1	1685	6204
1	1736	6205
1	1777	6206
1	1816	6207
1	1845	6208
1	1867	6209
1	1883	6210
1	1895	6211
1	1908	6212
1	1921	6213
1	1933	6214
1	1943	6215
1	1956	6216
1	1976	6217
1	2009	6218
1	2052	6219
1	2106	6220
1	2162	6221
1	2214	6222
1	2264	6223
1	2315	6224
1	2352	6225
1	2382	6226
1	2404	6227
1	2408	6228
1	2415	6229
1	2420	6230
1	2435	6231
1	2449	6232
1	2460	6233
1	2471	6234
1	2473	6235
1	2471	6236
1	2462	6237
1	2447	6238
1	2425	6239
1	2393	6240
1	2356	6241
1	2320	6242
1	2279	6243
1	2233	6244
1	2172	6245
1	2109	6246
1	2039	6247
1	1955	6248
1	1869	6249
1	1789	6250
1	1705	6251
1	1622	6252
1	1550	6253
1	1491	6254
1	1452	6255
1	1432	6256
1	1429	6257
1	1437	6258
1	1456	6259
1	1480	6260
1	1510	6261
1	1541	6262
1	1562	6263
1	1585	6264
1	1611	6265
1	1647	6266
1	1678	6267
1	1710	6268
1	1733	6269
1	1744	6270
1	1756	6271
1	1759	6272
1	1755	6273
1	1747	6274
1	1738	6275
1	1721	6276
1	1701	6277
1	1669	6278
1	1638	6279
1	1619	6280
1	1606	6281
1	1610	6282
1	1634	6283
1	1652	6284
1	1670	6285
1	1688	6286
1	1705	6287
1	1714	6288
1	1721	6289
1	1727	6290
1	1728	6291
1	1723	6292
1	1703	6293
1	1680	6294
1	1648	6295
1	1616	6296
1	1593	6297
1	1592	6298
1	1597	6299
1	1609	6300
1	1628	6301
1	1649	6302
1	1673	6303
1	1688	6304
1	1700	6305
1	1703	6306
1	1706	6307
1	1695	6308
1	1683	6309
1	1661	6310
1	1641	6311
1	1616	6312
1	1595	6313
1	1572	6314
1	1555	6315
1	1542	6316
1	1541	6317
1	1550	6318
1	1566	6319
1	1583	6320
1	1596	6321
1	1611	6322
1	1629	6323
1	1644	6324
1	1657	6325
1	1665	6326
1	1669	6327
1	1672	6328
1	1667	6329
1	1659	6330
1	1647	6331
1	1621	6332
1	1585	6333
1	1555	6334
1	1539	6335
1	1539	6336
1	1548	6337
1	1563	6338
1	1585	6339
1	1610	6340
1	1642	6341
1	1674	6342
1	1703	6343
1	1724	6344
1	1746	6345
1	1752	6346
1	1760	6347
1	1759	6348
1	1750	6349
1	1736	6350
1	1723	6351
1	1703	6352
1	1675	6353
1	1657	6354
1	1644	6355
1	1634	6356
1	1634	6357
1	1651	6358
1	1670	6359
1	1693	6360
1	1716	6361
1	1742	6362
1	1770	6363
1	1800	6364
1	1828	6365
1	1847	6366
1	1866	6367
1	1870	6368
1	1880	6369
1	1882	6370
1	1872	6371
1	1855	6372
1	1829	6373
1	1787	6374
1	1740	6375
1	1694	6376
1	1654	6377
1	1617	6378
1	1586	6379
1	1570	6380
1	1557	6381
1	1556	6382
1	1565	6383
1	1582	6384
1	1608	6385
1	1638	6386
1	1667	6387
1	1698	6388
1	1713	6389
1	1724	6390
1	1729	6391
1	1729	6392
1	1724	6393
1	1711	6394
1	1699	6395
1	1691	6396
1	1692	6397
1	1700	6398
1	1716	6399
1	1738	6400
1	1763	6401
1	1790	6402
1	1820	6403
1	1834	6404
1	1843	6405
1	1854	6406
1	1856	6407
1	1857	6408
1	1855	6409
1	1844	6410
1	1833	6411
1	1817	6412
1	1785	6413
1	1752	6414
1	1734	6415
1	1715	6416
1	1712	6417
1	1721	6418
1	1737	6419
1	1769	6420
1	1817	6421
1	1868	6422
1	1931	6423
1	1970	6424
1	1999	6425
1	2014	6426
1	2021	6427
1	2016	6428
1	2000	6429
1	1973	6430
1	1940	6431
1	1894	6432
1	1847	6433
1	1811	6434
1	1778	6435
1	1756	6436
1	1739	6437
1	1736	6438
1	1727	6439
1	1727	6440
1	1736	6441
1	1752	6442
1	1773	6443
1	1809	6444
1	1837	6445
1	1856	6446
1	1868	6447
1	1877	6448
1	1872	6449
1	1867	6450
1	1857	6451
1	1843	6452
1	1820	6453
1	1791	6454
1	1765	6455
1	1746	6456
1	1741	6457
1	1742	6458
1	1751	6459
1	1759	6460
1	1760	6461
1	1755	6462
1	1760	6463
1	1761	6464
1	1763	6465
1	1769	6466
1	1769	6467
1	1777	6468
1	1773	6469
1	1764	6470
1	1749	6471
1	1733	6472
1	1710	6473
1	1692	6474
1	1679	6475
1	1664	6476
1	1652	6477
1	1656	6478
1	1660	6479
1	1663	6480
1	1683	6481
1	1707	6482
1	1734	6483
1	1751	6484
1	1758	6485
1	1754	6486
1	1749	6487
1	1738	6488
1	1728	6489
1	1714	6490
1	1701	6491
1	1686	6492
1	1663	6493
1	1638	6494
1	1611	6495
1	1585	6496
1	1557	6497
1	1536	6498
1	1526	6499
1	1530	6500
1	1544	6501
1	1568	6502
1	1583	6503
1	1598	6504
1	1607	6505
1	1611	6506
1	1623	6507
1	1635	6508
1	1638	6509
1	1633	6510
1	1608	6511
1	1580	6512
1	1539	6513
1	1499	6514
1	1457	6515
1	1423	6516
1	1395	6517
1	1364	6518
1	1351	6519
1	1357	6520
1	1377	6521
1	1413	6522
1	1443	6523
1	1482	6524
1	1521	6525
1	1554	6526
1	1572	6527
1	1593	6528
1	1590	6529
1	1585	6530
1	1578	6531
1	1564	6532
1	1551	6533
1	1540	6534
1	1530	6535
1	1524	6536
1	1517	6537
1	1513	6538
1	1503	6539
1	1501	6540
1	1510	6541
1	1526	6542
1	1553	6543
1	1571	6544
1	1592	6545
1	1611	6546
1	1626	6547
1	1629	6548
1	1625	6549
1	1611	6550
1	1590	6551
1	1562	6552
1	1539	6553
1	1516	6554
1	1492	6555
1	1474	6556
1	1464	6557
1	1467	6558
1	1481	6559
1	1504	6560
1	1535	6561
1	1556	6562
1	1576	6563
1	1594	6564
1	1616	6565
1	1639	6566
1	1660	6567
1	1677	6568
1	1681	6569
1	1677	6570
1	1668	6571
1	1658	6572
1	1646	6573
1	1631	6574
1	1618	6575
1	1603	6576
1	1594	6577
1	1587	6578
1	1590	6579
1	1593	6580
1	1595	6581
1	1596	6582
1	1605	6583
1	1607	6584
1	1605	6585
1	1594	6586
1	1583	6587
1	1572	6588
1	1555	6589
1	1540	6590
1	1535	6591
1	1535	6592
1	1528	6593
1	1520	6594
1	1515	6595
1	1517	6596
1	1530	6597
1	1559	6598
1	1587	6599
1	1618	6600
1	1644	6601
1	1661	6602
1	1669	6603
1	1669	6604
1	1661	6605
1	1654	6606
1	1646	6607
1	1634	6608
1	1634	6609
1	1621	6610
1	1608	6611
1	1592	6612
1	1574	6613
1	1545	6614
1	1526	6615
1	1505	6616
1	1492	6617
1	1485	6618
1	1485	6619
1	1494	6620
1	1497	6621
1	1499	6622
1	1503	6623
1	1515	6624
1	1540	6625
1	1574	6626
1	1611	6627
1	1647	6628
1	1681	6629
1	1708	6630
1	1720	6631
1	1721	6632
1	1717	6633
1	1710	6634
1	1695	6635
1	1680	6636
1	1664	6637
1	1651	6638
1	1634	6639
1	1625	6640
1	1623	6641
1	1629	6642
1	1638	6643
1	1651	6644
1	1658	6645
1	1661	6646
1	1661	6647
1	1662	6648
1	1656	6649
1	1643	6650
1	1625	6651
1	1607	6652
1	1582	6653
1	1567	6654
1	1552	6655
1	1536	6656
1	1535	6657
1	1553	6658
1	1567	6659
1	1590	6660
1	1616	6661
1	1643	6662
1	1662	6663
1	1673	6664
1	1674	6665
1	1672	6666
1	1662	6667
1	1643	6668
1	1625	6669
1	1607	6670
1	1592	6671
1	1578	6672
1	1569	6673
1	1555	6674
1	1547	6675
1	1539	6676
1	1534	6677
1	1537	6678
1	1541	6679
1	1550	6680
1	1555	6681
1	1561	6682
1	1567	6683
1	1581	6684
1	1602	6685
1	1628	6686
1	1649	6687
1	1679	6688
1	1696	6689
1	1710	6690
1	1725	6691
1	1731	6692
1	1729	6693
1	1724	6694
1	1714	6695
1	1710	6696
1	1709	6697
1	1710	6698
1	1713	6699
1	1715	6700
1	1712	6701
1	1710	6702
1	1710	6703
1	1712	6704
1	1712	6705
1	1709	6706
1	1701	6707
1	1690	6708
1	1672	6709
1	1652	6710
1	1634	6711
1	1620	6712
1	1597	6713
1	1580	6714
1	1560	6715
1	1543	6716
1	1531	6717
1	1525	6718
1	1515	6719
1	1517	6720
1	1520	6721
1	1546	6722
1	1571	6723
1	1607	6724
1	1647	6725
1	1685	6726
1	1712	6727
1	1730	6728
1	1740	6729
1	1739	6730
1	1728	6731
1	1701	6732
1	1674	6733
1	1646	6734
1	1619	6735
1	1600	6736
1	1583	6737
1	1570	6738
1	1552	6739
1	1594	6760
1	1618	6761
1	1642	6762
1	1670	6763
1	1701	6764
1	1726	6765
1	1746	6766
1	1763	6767
1	1777	6768
1	1791	6769
1	1791	6770
1	1780	6771
1	1753	6772
1	1711	6773
1	1669	6774
1	1630	6775
1	1594	6776
1	1571	6777
1	1571	6778
1	1577	6779
1	1543	6740
1	1545	6741
1	1561	6742
1	1579	6743
1	1594	6744
1	1612	6745
1	1628	6746
1	1634	6747
1	1643	6748
1	1647	6749
1	1652	6750
1	1655	6751
1	1647	6752
1	1634	6753
1	1618	6754
1	1602	6755
1	1587	6756
1	1581	6757
1	1575	6758
1	1579	6759
1	1589	6780
1	1611	6781
1	1639	6782
1	1669	6783
1	1693	6784
1	1713	6785
1	1733	6786
1	1740	6787
1	1738	6788
1	1737	6789
1	1733	6790
1	1718	6791
1	1689	6792
1	1657	6793
1	1613	6794
1	1574	6795
1	1535	6796
1	1503	6797
1	1481	6798
1	1472	6799
1	1466	6800
1	1467	6801
1	1472	6802
1	1488	6803
1	1521	6804
1	1571	6805
1	1625	6806
1	1684	6807
1	1738	6808
1	1777	6809
1	1799	6810
1	1800	6811
1	1780	6812
1	1750	6813
1	1726	6814
1	1712	6815
1	1706	6816
1	1699	6817
1	1698	6818
1	1701	6819
1	1712	6820
1	1724	6821
1	1733	6822
1	1738	6823
1	1747	6824
1	1760	6825
1	1773	6826
1	1789	6827
1	1790	6828
1	1787	6829
1	1778	6830
1	1764	6831
1	1739	6832
1	1707	6833
1	1664	6834
1	1622	6835
1	1580	6836
1	1540	6837
1	1516	6838
1	1507	6839
1	1634	6880
1	1634	6881
1	1633	6882
1	1634	6883
1	1634	6884
1	1645	6885
1	1665	6886
1	1687	6887
1	1708	6888
1	1720	6889
1	1725	6890
1	1721	6891
1	1709	6892
1	1681	6893
1	1657	6894
1	1631	6895
1	1607	6896
1	1594	6897
1	1603	6898
1	1616	6899
1	1718	6860
1	1734	6861
1	1739	6862
1	1742	6863
1	1754	6864
1	1773	6865
1	1796	6866
1	1816	6867
1	1823	6868
1	1814	6869
1	1790	6870
1	1764	6871
1	1738	6872
1	1712	6873
1	1685	6874
1	1657	6875
1	1638	6876
1	1634	6877
1	1629	6878
1	1634	6879
1	1634	6900
1	1656	6901
1	1680	6902
1	1709	6903
1	1742	6904
1	1770	6905
1	1789	6906
1	1792	6907
1	1789	6908
1	1774	6909
1	1751	6910
1	1712	6911
1	1669	6912
1	1626	6913
1	1581	6914
1	1547	6915
1	1525	6916
1	1508	6917
1	1505	6918
1	1516	6919
1	1507	6840
1	1513	6841
1	1535	6842
1	1561	6843
1	1607	6844
1	1660	6845
1	1713	6846
1	1755	6847
1	1775	6848
1	1788	6849
1	1791	6850
1	1787	6851
1	1775	6852
1	1764	6853
1	1750	6854
1	1729	6855
1	1712	6856
1	1701	6857
1	1701	6858
1	1710	6859
1	1541	6920
1	1567	6921
1	1597	6922
1	1638	6923
1	1674	6924
1	1701	6925
1	1725	6926
1	1738	6927
1	1737	6928
1	1723	6929
1	1698	6930
1	1669	6931
1	1639	6932
1	1610	6933
1	1593	6934
1	1581	6935
1	1579	6936
1	1580	6937
1	1585	6938
1	1607	6939
1	1634	6940
1	1659	6941
1	1685	6942
1	1714	6943
1	1729	6944
1	1738	6945
1	1728	6946
1	1704	6947
1	1674	6948
1	1639	6949
1	1605	6950
1	1569	6951
1	1540	6952
1	1518	6953
1	1510	6954
1	1518	6955
1	1539	6956
1	1573	6957
1	1625	6958
1	1672	6959
1	1725	6960
1	1773	6961
1	1817	6962
1	1845	6963
1	1854	6964
1	1846	6965
1	1836	6966
1	1814	6967
1	1778	6968
1	1742	6969
1	1706	6970
1	1667	6971
1	1633	6972
1	1610	6973
1	1589	6974
1	1580	6975
1	1580	6976
1	1580	6977
1	1593	6978
1	1607	6979
1	1628	6980
1	1650	6981
1	1685	6982
1	1704	6983
1	1718	6984
1	1727	6985
1	1733	6986
1	1737	6987
1	1746	6988
1	1746	6989
1	1738	6990
1	1720	6991
1	1693	6992
1	1659	6993
1	1625	6994
1	1592	6995
1	1563	6996
1	1546	6997
1	1535	6998
1	1530	6999
1	1533	7000
1	1539	7001
1	1545	7002
1	1561	7003
1	1575	7004
1	1589	7005
1	1607	7006
1	1620	7007
1	1636	7008
1	1654	7009
1	1667	7010
1	1686	7011
1	1710	7012
1	1737	7013
1	1775	7014
1	1827	7015
1	1877	7016
1	1926	7017
1	1985	7018
1	2028	7019
1	2073	7020
1	2109	7021
1	2146	7022
1	2201	7023
1	2242	7024
1	2279	7025
1	2314	7026
1	2354	7027
1	2390	7028
1	2418	7029
1	2434	7030
1	2438	7031
1	2426	7032
1	2415	7033
1	2399	7034
1	2384	7035
1	2367	7036
1	2346	7037
1	2327	7038
1	2309	7039
1	2287	7040
1	2266	7041
1	2240	7042
1	2201	7043
1	2149	7044
1	2086	7045
1	2022	7046
1	1948	7047
1	1883	7048
1	1814	7049
1	1742	7050
1	1683	7051
1	1623	7052
1	1566	7053
1	1515	7054
1	1467	7055
1	1424	7056
1	1394	7057
1	1368	7058
1	1370	7059
1	1639	7080
1	1648	7081
1	1664	7082
1	1688	7083
1	1712	7084
1	1725	7085
1	1738	7086
1	1742	7087
1	1734	7088
1	1729	7089
1	1729	7090
1	1728	7091
1	1721	7092
1	1713	7093
1	1690	7094
1	1661	7095
1	1634	7096
1	1616	7097
1	1603	7098
1	1602	7099
1	1392	7060
1	1424	7061
1	1464	7062
1	1518	7063
1	1566	7064
1	1616	7065
1	1670	7066
1	1725	7067
1	1769	7068
1	1801	7069
1	1818	7070
1	1815	7071
1	1793	7072
1	1767	7073
1	1744	7074
1	1716	7075
1	1687	7076
1	1659	7077
1	1647	7078
1	1636	7079
1	1612	7100
1	1636	7101
1	1665	7102
1	1690	7103
1	1712	7104
1	1733	7105
1	1744	7106
1	1751	7107
1	1764	7108
1	1764	7109
1	1759	7110
1	1751	7111
1	1739	7112
1	1724	7113
1	1708	7114
1	1691	7115
1	1679	7116
1	1670	7117
1	1662	7118
1	1663	7119
1	1679	7120
1	1694	7121
1	1713	7122
1	1731	7123
1	1749	7124
1	1755	7125
1	1762	7126
1	1765	7127
1	1764	7128
1	1760	7129
1	1753	7130
1	1739	7131
1	1717	7132
1	1690	7133
1	1660	7134
1	1620	7135
1	1589	7136
1	1571	7137
1	1567	7138
1	1561	7139
1	1567	7140
1	1579	7141
1	1607	7142
1	1641	7143
1	1680	7144
1	1712	7145
1	1741	7146
1	1764	7147
1	1780	7148
1	1791	7149
1	1791	7150
1	1783	7151
1	1770	7152
1	1769	7153
1	1760	7154
1	1751	7155
1	1738	7156
1	1738	7157
1	1742	7158
1	1754	7159
1	1762	7160
1	1764	7161
1	1768	7162
1	1766	7163
1	1767	7164
1	1772	7165
1	1777	7166
1	1773	7167
1	1766	7168
1	1751	7169
1	1738	7170
1	1716	7171
1	1691	7172
1	1660	7173
1	1639	7174
1	1629	7175
1	1626	7176
1	1632	7177
1	1633	7178
1	1647	7179
1	1678	7180
1	1712	7181
1	1754	7182
1	1814	7183
1	1856	7184
1	1895	7185
1	1932	7186
1	1960	7187
1	1980	7188
1	2000	7189
1	2005	7190
1	2000	7191
1	1983	7192
1	1948	7193
1	1917	7194
1	1889	7195
1	1862	7196
1	1832	7197
1	1818	7198
1	1808	7199
1	1800	7200
1	1803	7201
1	1817	7202
1	1827	7203
1	1841	7204
1	1854	7205
1	1868	7206
1	1883	7207
1	1895	7208
1	1906	7209
1	1908	7210
1	1897	7211
1	1878	7212
1	1857	7213
1	1823	7214
1	1782	7215
1	1751	7216
1	1727	7217
1	1718	7218
1	1727	7219
1	1746	7220
1	1775	7221
1	1813	7222
1	1859	7223
1	1908	7224
1	1960	7225
1	2000	7226
1	2031	7227
1	2052	7228
1	2061	7229
1	2052	7230
1	2036	7231
1	2019	7232
1	2000	7233
1	1977	7234
1	1960	7235
1	1935	7236
1	1909	7237
1	1880	7238
1	1856	7239
1	1838	7240
1	1820	7241
1	1817	7242
1	1838	7243
1	1855	7244
1	1878	7245
1	1903	7246
1	1927	7247
1	1948	7248
1	1960	7249
1	1969	7250
1	1971	7251
1	1962	7252
1	1940	7253
1	1919	7254
1	1899	7255
1	1888	7256
1	1881	7257
1	1895	7258
1	1896	7259
1	1904	7260
1	1916	7261
1	1933	7262
1	1950	7263
1	1965	7264
1	1978	7265
1	1985	7266
1	1978	7267
1	1953	7268
1	1918	7269
1	1878	7270
1	1838	7271
1	1791	7272
1	1762	7273
1	1728	7274
1	1698	7275
1	1670	7276
1	1647	7277
1	1629	7278
1	1621	7279
1	1618	7280
1	1620	7281
1	1631	7282
1	1632	7283
1	1632	7284
1	1634	7285
1	1625	7286
1	1611	7287
1	1607	7288
1	1582	7289
1	1555	7290
1	1529	7291
1	1503	7292
1	1477	7293
1	1453	7294
1	1433	7295
1	1420	7296
1	1415	7297
1	1412	7298
1	1419	7299
1	1434	7300
1	1458	7301
1	1485	7302
1	1530	7303
1	1580	7304
1	1629	7305
1	1673	7306
1	1707	7307
1	1721	7308
1	1718	7309
1	1700	7310
1	1668	7311
1	1633	7312
1	1593	7313
1	1557	7314
1	1530	7315
1	1505	7316
1	1490	7317
1	1485	7318
1	1476	7319
1	1476	7320
1	1478	7321
1	1489	7322
1	1505	7323
1	1521	7324
1	1530	7325
1	1544	7326
1	1554	7327
1	1554	7328
1	1547	7329
1	1539	7330
1	1529	7331
1	1511	7332
1	1503	7333
1	1494	7334
1	1490	7335
1	1490	7336
1	1502	7337
1	1508	7338
1	1518	7339
1	1536	7340
1	1548	7341
1	1555	7342
1	1568	7343
1	1581	7344
1	1598	7345
1	1616	7346
1	1629	7347
1	1644	7348
1	1635	7349
1	1620	7350
1	1597	7351
1	1571	7352
1	1535	7353
1	1494	7354
1	1451	7355
1	1417	7356
1	1405	7357
1	1398	7358
1	1402	7359
1	1412	7360
1	1425	7361
1	1452	7362
1	1489	7363
1	1512	7364
1	1529	7365
1	1546	7366
1	1553	7367
1	1554	7368
1	1551	7369
1	1541	7370
1	1526	7371
1	1500	7372
1	1471	7373
1	1446	7374
1	1417	7375
1	1384	7376
1	1371	7377
1	1373	7378
1	1384	7379
1	1400	7380
1	1416	7381
1	1436	7382
1	1459	7383
1	1490	7384
1	1529	7385
1	1570	7386
1	1607	7387
1	1633	7388
1	1647	7389
1	1652	7390
1	1649	7391
1	1638	7392
1	1629	7393
1	1604	7394
1	1580	7395
1	1554	7396
1	1529	7397
1	1503	7398
1	1489	7399
1	1484	7400
1	1490	7401
1	1511	7402
1	1521	7403
1	1533	7404
1	1551	7405
1	1569	7406
1	1581	7407
1	1593	7408
1	1590	7409
1	1581	7410
1	1571	7411
1	1566	7412
1	1562	7413
1	1557	7414
1	1556	7415
1	1557	7416
1	1565	7417
1	1564	7418
1	1564	7419
1	1487	7440
1	1512	7441
1	1541	7442
1	1567	7443
1	1595	7444
1	1628	7445
1	1658	7446
1	1686	7447
1	1698	7448
1	1701	7449
1	1700	7450
1	1688	7451
1	1665	7452
1	1639	7453
1	1607	7454
1	1574	7455
1	1550	7456
1	1530	7457
1	1519	7458
1	1509	7459
1	1566	7420
1	1570	7421
1	1576	7422
1	1585	7423
1	1592	7424
1	1587	7425
1	1593	7426
1	1584	7427
1	1567	7428
1	1555	7429
1	1544	7430
1	1529	7431
1	1510	7432
1	1487	7433
1	1463	7434
1	1449	7435
1	1437	7436
1	1436	7437
1	1448	7438
1	1461	7439
1	1505	7460
1	1507	7461
1	1514	7462
1	1515	7463
1	1517	7464
1	1516	7465
1	1516	7466
1	1517	7467
1	1530	7468
1	1533	7469
1	1544	7470
1	1559	7471
1	1580	7472
1	1597	7473
1	1610	7474
1	1622	7475
1	1633	7476
1	1643	7477
1	1646	7478
1	1651	7479
1	1652	7480
1	1645	7481
1	1634	7482
1	1638	7483
1	1624	7484
1	1607	7485
1	1582	7486
1	1562	7487
1	1551	7488
1	1543	7489
1	1540	7490
1	1536	7491
1	1531	7492
1	1521	7493
1	1508	7494
1	1491	7495
1	1467	7496
1	1450	7497
1	1452	7498
1	1458	7499
1	1468	7500
1	1485	7501
1	1508	7502
1	1531	7503
1	1553	7504
1	1570	7505
1	1584	7506
1	1606	7507
1	1619	7508
1	1634	7509
1	1647	7510
1	1660	7511
1	1663	7512
1	1664	7513
1	1656	7514
1	1646	7515
1	1634	7516
1	1620	7517
1	1609	7518
1	1607	7519
1	1609	7520
1	1613	7521
1	1623	7522
1	1636	7523
1	1652	7524
1	1662	7525
1	1669	7526
1	1669	7527
1	1671	7528
1	1665	7529
1	1655	7530
1	1631	7531
1	1602	7532
1	1562	7533
1	1527	7534
1	1499	7535
1	1476	7536
1	1462	7537
1	1451	7538
1	1456	7539
1	1474	7540
1	1494	7541
1	1526	7542
1	1566	7543
1	1598	7544
1	1634	7545
1	1665	7546
1	1692	7547
1	1713	7548
1	1725	7549
1	1721	7550
1	1707	7551
1	1680	7552
1	1638	7553
1	1605	7554
1	1574	7555
1	1546	7556
1	1524	7557
1	1513	7558
1	1502	7559
1	1499	7560
1	1503	7561
1	1512	7562
1	1525	7563
1	1529	7564
1	1535	7565
1	1542	7566
1	1548	7567
1	1551	7568
1	1548	7569
1	1550	7570
1	1553	7571
1	1551	7572
1	1556	7573
1	1548	7574
1	1534	7575
1	1526	7576
1	1521	7577
1	1526	7578
1	1531	7579
1	1543	7580
1	1561	7581
1	1582	7582
1	1606	7583
1	1624	7584
1	1643	7585
1	1663	7586
1	1684	7587
1	1709	7588
1	1718	7589
1	1719	7590
1	1711	7591
1	1697	7592
1	1683	7593
1	1665	7594
1	1649	7595
1	1633	7596
1	1616	7597
1	1607	7598
1	1607	7599
1	1620	7600
1	1634	7601
1	1644	7602
1	1664	7603
1	1684	7604
1	1701	7605
1	1715	7606
1	1724	7607
1	1723	7608
1	1721	7609
1	1713	7610
1	1701	7611
1	1682	7612
1	1655	7613
1	1634	7614
1	1616	7615
1	1602	7616
1	1590	7617
1	1589	7618
1	1584	7619
1	1600	7620
1	1621	7621
1	1644	7622
1	1678	7623
1	1685	7624
1	1689	7625
1	1688	7626
1	1677	7627
1	1664	7628
1	1652	7629
1	1638	7630
1	1625	7631
1	1609	7632
1	1603	7633
1	1592	7634
1	1581	7635
1	1574	7636
1	1581	7637
1	1589	7638
1	1593	7639
1	1603	7640
1	1621	7641
1	1647	7642
1	1670	7643
1	1686	7644
1	1697	7645
1	1699	7646
1	1699	7647
1	1708	7648
1	1713	7649
1	1718	7650
1	1725	7651
1	1726	7652
1	1718	7653
1	1708	7654
1	1690	7655
1	1677	7656
1	1669	7657
1	1662	7658
1	1664	7659
1	1675	7660
1	1688	7661
1	1704	7662
1	1730	7663
1	1738	7664
1	1751	7665
1	1764	7666
1	1786	7667
1	1795	7668
1	1791	7669
1	1777	7670
1	1756	7671
1	1737	7672
1	1711	7673
1	1682	7674
1	1646	7675
1	1613	7676
1	1593	7677
1	1586	7678
1	1581	7679
1	1585	7680
1	1598	7681
1	1610	7682
1	1626	7683
1	1644	7684
1	1664	7685
1	1690	7686
1	1710	7687
1	1710	7688
1	1700	7689
1	1686	7690
1	1670	7691
1	1655	7692
1	1646	7693
1	1628	7694
1	1607	7695
1	1586	7696
1	1571	7697
1	1557	7698
1	1553	7699
1	1557	7700
1	1574	7701
1	1595	7702
1	1609	7703
1	1634	7704
1	1659	7705
1	1672	7706
1	1674	7707
1	1686	7708
1	1675	7709
1	1669	7710
1	1654	7711
1	1634	7712
1	1618	7713
1	1605	7714
1	1586	7715
1	1580	7716
1	1580	7717
1	1585	7718
1	1607	7719
1	1634	7720
1	1658	7721
1	1677	7722
1	1703	7723
1	1723	7724
1	1731	7725
1	1744	7726
1	1753	7727
1	1751	7728
1	1751	7729
1	1751	7730
1	1748	7731
1	1739	7732
1	1721	7733
1	1698	7734
1	1679	7735
1	1661	7736
1	1641	7737
1	1635	7738
1	1641	7739
1	1647	7740
1	1657	7741
1	1674	7742
1	1697	7743
1	1724	7744
1	1751	7745
1	1776	7746
1	1790	7747
1	1790	7748
1	1788	7749
1	1783	7750
1	1773	7751
1	1752	7752
1	1743	7753
1	1731	7754
1	1718	7755
1	1712	7756
1	1705	7757
1	1703	7758
1	1701	7759
1	1710	7760
1	1714	7761
1	1709	7762
1	1686	7763
1	1660	7764
1	1639	7765
1	1633	7766
1	1630	7767
1	1641	7768
1	1644	7769
1	1647	7770
1	1651	7771
1	1646	7772
1	1632	7773
1	1608	7774
1	1584	7775
1	1566	7776
1	1551	7777
1	1539	7778
1	1544	7779
1	1563	7780
1	1592	7781
1	1620	7782
1	1657	7783
1	1680	7784
1	1701	7785
1	1726	7786
1	1749	7787
1	1773	7788
1	1811	7789
1	1844	7790
1	1878	7791
1	1909	7792
1	1940	7793
1	1976	7794
1	2016	7795
1	2055	7796
1	2091	7797
1	2143	7798
1	2174	7799
1	2201	7800
1	2231	7801
1	2264	7802
1	2297	7803
1	2323	7804
1	2345	7805
1	2367	7806
1	2384	7807
1	2394	7808
1	2405	7809
1	2411	7810
1	2412	7811
1	2418	7812
1	2444	7813
1	2454	7814
1	2457	7815
1	2446	7816
1	2437	7817
1	2428	7818
1	2417	7819
1	2399	7820
1	2368	7821
1	2346	7822
1	2314	7823
1	2273	7824
1	2216	7825
1	2157	7826
1	2096	7827
1	2034	7828
1	1968	7829
1	1903	7830
1	1843	7831
1	1778	7832
1	1723	7833
1	1675	7834
1	1634	7835
1	1598	7836
1	1580	7837
1	1567	7838
1	1579	7839
1	1602	7840
1	1634	7841
1	1668	7842
1	1711	7843
1	1751	7844
1	1777	7845
1	1791	7846
1	1791	7847
1	1790	7848
1	1777	7849
1	1760	7850
1	1741	7851
1	1720	7852
1	1699	7853
1	1688	7854
1	1679	7855
1	1674	7856
1	1674	7857
1	1688	7858
1	1700	7859
1	1721	7860
1	1738	7861
1	1759	7862
1	1785	7863
1	1814	7864
1	1835	7865
1	1852	7866
1	1862	7867
1	1856	7868
1	1845	7869
1	1835	7870
1	1821	7871
1	1800	7872
1	1800	7873
1	1788	7874
1	1772	7875
1	1760	7876
1	1754	7877
1	1753	7878
1	1752	7879
1	1764	7880
1	1777	7881
1	1791	7882
1	1808	7883
1	1816	7884
1	1827	7885
1	1843	7886
1	1850	7887
1	1873	7888
1	1888	7889
1	1895	7890
1	1895	7891
1	1886	7892
1	1869	7893
1	1848	7894
1	1831	7895
1	1818	7896
1	1821	7897
1	1829	7898
1	1842	7899
1	1860	7900
1	1877	7901
1	1886	7902
1	1904	7903
1	1908	7904
1	1908	7905
1	1908	7906
1	1899	7907
1	1890	7908
1	1873	7909
1	1856	7910
1	1837	7911
1	1817	7912
1	1796	7913
1	1785	7914
1	1773	7915
1	1764	7916
1	1759	7917
1	1769	7918
1	1777	7919
1	1791	7920
1	1803	7921
1	1818	7922
1	1844	7923
1	1855	7924
1	1869	7925
1	1890	7926
1	1904	7927
1	1908	7928
1	1899	7929
1	1891	7930
1	1879	7931
1	1864	7932
1	1856	7933
1	1845	7934
1	1845	7935
1	1844	7936
1	1854	7937
1	1868	7938
1	1887	7939
1	1906	7940
1	1927	7941
1	1957	7942
1	1974	7943
1	1987	7944
1	1998	7945
1	2005	7946
1	2002	7947
1	2009	7948
1	1994	7949
1	1976	7950
1	1959	7951
1	1936	7952
1	1918	7953
1	1899	7954
1	1879	7955
1	1867	7956
1	1863	7957
1	1868	7958
1	1881	7959
1	1908	7960
1	1948	7961
1	1994	7962
1	2052	7963
1	2094	7964
1	2122	7965
1	2143	7966
1	2155	7967
1	2155	7968
1	2144	7969
1	2124	7970
1	2096	7971
1	2065	7972
1	2018	7973
1	1973	7974
1	1932	7975
1	1900	7976
1	1883	7977
1	1882	7978
1	1875	7979
1	1871	7980
1	1877	7981
1	1896	7982
1	1928	7983
1	1959	7984
1	1993	7985
1	2027	7986
1	2060	7987
1	2080	7988
1	2097	7989
1	2106	7990
1	2111	7991
1	2104	7992
1	2104	7993
1	2089	7994
1	2079	7995
1	2081	7996
1	2088	7997
1	2102	7998
1	2119	7999
1	2143	8000
1	2167	8000
1	2192	8002
1	2210	8003
1	2236	8004
1	2248	8005
1	2261	8006
1	2260	8007
1	2264	8008
1	2256	8009
1	2244	8010
1	2237	8011
1	2232	8012
1	2214	8013
1	2192	8013
1	2166	8015
1	2140	8016
1	2110	8016
1	2076	8018
1	2050	8019
1	2037	8020
1	2035	8021
1	2044	8022
1	2064	8023
1	2090	8024
1	2118	8025
1	2136	8026
1	2171	8027
1	2189	8028
1	2210	8029
1	2219	8029
1	2215	8031
1	2201	8032
1	2183	8032
1	2168	8034
1	2150	8035
1	2131	8036
1	2105	8037
1	2088	8038
1	2068	8039
1	2057	8040
1	2063	8041
1	2066	8042
1	2078	8043
1	2083	8044
1	2093	8045
1	2107	8045
1	2120	8047
1	2119	8048
1	2118	8048
1	2107	8050
1	2088	8051
1	2058	8052
1	2038	8053
1	2004	8054
1	1974	8055
1	1949	8056
1	1934	8057
1	1927	8058
1	1935	8059
1	1953	8060
1	1977	8061
1	2008	8061
1	2026	8063
1	2034	8064
1	2042	8064
1	2047	8066
1	2032	8067
1	2026	8068
1	2013	8069
1	1998	8070
1	1974	8071
1	1952	8072
1	1934	8073
1	1917	8074
1	1900	8074
1	1891	8076
1	1878	8077
1	1862	8077
1	1849	8079
1	1843	8080
1	1843	8080
1	1843	8082
1	1862	8083
1	1872	8084
1	1890	8085
1	1907	8086
1	1921	8087
1	1924	8088
1	1922	8089
1	1921	8090
1	1910	8090
1	1899	8092
1	1877	8093
1	1855	8093
1	1827	8095
1	1801	8096
1	1782	8096
1	1787	8098
1	1796	8099
1	1821	8100
1	1847	8101
1	1874	8102
1	1899	8103
1	1920	8104
1	1934	8105
1	1948	8106
1	1959	8106
1	1959	8108
1	1953	8109
1	1946	8109
1	1927	8111
1	1908	8112
1	1895	8113
1	1869	8114
1	1844	8115
1	1826	8116
1	1817	8117
1	1815	8118
1	1818	8119
1	1832	8120
1	1849	8121
1	1869	8122
1	1895	8122
1	1919	8124
1	1939	8125
1	1939	8125
1	1934	8127
1	1932	8128
1	1929	8129
1	1922	8130
1	1922	8131
1	1917	8132
1	1904	8133
1	1891	8134
1	1877	8135
1	1861	8136
1	1851	8137
1	1842	8138
1	1845	8138
1	1855	8140
1	1869	8141
1	1880	8141
1	1899	8143
1	1916	8144
1	1932	8145
1	1947	8146
1	1950	8147
1	1949	8148
1	1946	8149
1	1930	8150
1	1918	8151
1	1906	8152
1	1890	8153
1	1880	8154
1	1869	8154
1	1855	8156
1	1841	8157
1	1831	8157
1	1827	8159
1	1831	8160
1	1843	8161
1	1866	8162
1	1893	8163
1	1917	8164
1	1947	8165
1	1971	8166
1	1994	8167
1	2002	8168
1	2006	8169
1	2004	8170
1	1999	8170
1	1991	8172
1	1988	8173
1	1975	8173
1	1956	8175
1	1935	8176
1	1912	8177
1	1886	8178
1	1862	8179
1	1843	8180
1	1831	8181
1	1830	8182
1	1832	8183
1	1843	8184
1	1859	8185
1	1877	8186
1	1888	8186
1	1901	8188
1	1901	8189
1	1895	8189
1	1890	8191
1	1881	8192
1	1870	8193
1	1857	8194
1	1849	8195
1	1845	8196
1	1849	8197
1	1850	8198
1	1857	8199
1	1869	8200
1	1890	8201
1	1906	8202
1	1932	8203
1	1949	8204
1	1964	8205
1	1974	8206
1	1980	8207
1	1975	8208
1	1975	8209
1	1974	8210
1	1975	8211
1	1965	8212
1	1947	8213
1	1936	8214
1	1926	8215
1	1914	8216
1	1906	8217
1	1913	8218
1	1926	8219
1	1941	8220
1	1956	8221
1	1974	8222
1	1983	8223
1	1985	8224
1	1985	8225
1	1985	8226
1	1983	8227
1	1975	8228
1	1971	8229
1	1963	8230
1	1950	8231
1	1931	8232
1	1909	8233
1	1888	8234
1	1869	8235
1	1854	8236
1	1850	8237
1	1847	8238
1	1854	8239
1	1867	8240
1	1886	8241
1	1909	8242
1	1931	8243
1	1948	8244
1	1967	8245
1	1985	8246
1	1989	8247
1	1998	8248
1	1989	8249
1	1981	8250
1	1973	8251
1	1961	8252
1	1947	8253
1	1934	8254
1	1922	8255
1	1905	8256
1	1891	8257
1	1875	8258
1	1874	8259
1	1879	8260
1	1885	8261
1	1881	8262
1	1877	8263
1	1865	8264
1	1854	8265
1	1850	8266
1	1858	8267
1	1877	8268
1	1901	8269
1	1922	8270
1	1932	8271
1	1936	8272
1	1937	8273
1	1936	8274
1	1935	8275
1	1922	8276
1	1907	8277
1	1904	8278
1	1904	8279
1	1908	8280
1	1913	8281
1	1922	8282
1	1937	8283
1	1949	8284
1	1963	8285
1	1974	8286
1	1978	8287
1	1975	8288
1	1974	8289
1	1971	8290
1	1962	8291
1	1945	8292
1	1933	8293
1	1921	8294
1	1913	8295
1	1913	8296
1	1922	8297
1	1941	8298
1	1963	8299
1	1989	8300
1	2021	8301
1	2052	8302
1	2070	8303
1	2079	8304
1	2080	8305
1	2074	8306
1	2055	8307
1	2041	8308
1	2028	8309
1	2013	8310
1	1992	8311
1	1955	8312
1	1914	8313
1	1873	8314
1	1841	8315
1	1809	8316
1	1791	8317
1	1778	8318
1	1778	8319
1	1791	8320
1	1818	8321
1	1845	8322
1	1880	8323
1	1910	8324
1	1929	8325
1	1950	8326
1	1949	8327
1	1959	8328
1	1958	8329
1	1949	8330
1	1948	8331
1	1935	8332
1	1911	8333
1	1881	8334
1	1856	8335
1	1835	8336
1	1823	8337
1	1817	8338
1	1808	8339
1	1803	8340
1	1817	8341
1	1842	8342
1	1868	8343
1	1899	8344
1	1930	8345
1	1956	8346
1	1976	8347
1	1989	8348
1	1997	8349
1	1998	8350
1	1986	8351
1	1966	8352
1	1947	8353
1	1914	8354
1	1885	8355
1	1860	8356
1	1851	8357
1	1853	8358
1	1864	8359
1	1881	8360
1	1897	8361
1	1922	8362
1	1944	8363
1	1962	8364
1	1974	8365
1	1981	8366
1	1985	8367
1	1993	8368
1	1991	8369
1	1988	8370
1	1986	8371
1	1984	8372
1	1980	8373
1	1971	8374
1	1958	8375
1	1942	8376
1	1922	8377
1	1897	8378
1	1874	8379
1	1858	8380
1	1854	8381
1	1857	8382
1	1878	8383
1	1900	8384
1	1929	8385
1	1958	8386
1	1978	8387
1	1996	8388
1	2004	8389
1	2006	8390
1	2000	8391
1	1994	8392
1	1974	8393
1	1948	8394
1	1916	8395
1	1886	8396
1	1863	8397
1	1856	8398
1	1856	8399
1	1867	8400
1	1891	8401
1	1922	8402
1	1955	8403
1	1986	8404
1	2013	8405
1	2032	8406
1	2037	8407
1	2011	8408
1	1974	8409
1	1937	8410
1	1895	8411
1	1854	8412
1	1817	8413
1	1776	8414
1	1744	8415
1	1719	8416
1	1700	8417
1	1695	8418
1	1705	8419
1	1725	8420
1	1750	8421
1	1770	8422
1	1809	8423
1	1847	8424
1	1890	8425
1	1934	8426
1	1974	8427
1	2004	8428
1	2024	8429
1	2029	8430
1	2027	8431
1	2026	8432
1	2012	8433
1	1998	8434
1	1974	8435
1	1953	8436
1	1937	8437
1	1922	8438
1	1916	8439
1	1916	8440
1	1919	8441
1	1929	8442
1	1953	8443
1	1969	8444
1	1977	8445
1	1976	8446
1	1973	8447
1	1965	8448
1	1961	8449
1	1957	8450
1	1944	8451
1	1922	8452
1	1896	8453
1	1875	8454
1	1859	8455
1	1855	8456
1	1854	8457
1	1868	8458
1	1875	8459
1	1795	8480
1	1796	8481
1	1798	8482
1	1791	8483
1	1791	8484
1	1796	8485
1	1803	8486
1	1813	8487
1	1817	8488
1	1817	8489
1	1814	8490
1	1791	8491
1	1764	8492
1	1738	8493
1	1711	8494
1	1686	8495
1	1662	8496
1	1651	8497
1	1644	8498
1	1652	8499
1	1886	8460
1	1895	8461
1	1911	8462
1	1936	8463
1	1962	8464
1	1979	8465
1	1991	8466
1	1989	8467
1	1975	8468
1	1965	8469
1	1953	8470
1	1940	8471
1	1924	8472
1	1910	8473
1	1883	8474
1	1850	8475
1	1821	8476
1	1800	8477
1	1791	8478
1	1791	8479
1	1664	8500
1	1685	8501
1	1716	8502
1	1768	8503
1	1820	8504
1	1866	8505
1	1895	8506
1	1908	8507
1	1908	8508
1	1904	8509
1	1898	8510
1	1890	8511
1	1878	8512
1	1863	8513
1	1847	8514
1	1832	8515
1	1814	8516
1	1800	8517
1	1800	8518
1	1801	8519
1	1803	8520
1	1809	8521
1	1817	8522
1	1818	8523
1	1819	8524
1	1832	8525
1	1849	8526
1	1866	8527
1	1871	8528
1	1867	8529
1	1852	8530
1	1838	8531
1	1821	8532
1	1801	8533
1	1778	8534
1	1762	8535
1	1750	8536
1	1749	8537
1	1749	8538
1	1752	8539
1	1764	8540
1	1780	8541
1	1800	8542
1	1824	8543
1	1843	8544
1	1859	8545
1	1869	8546
1	1874	8547
1	1883	8548
1	1880	8549
1	1865	8550
1	1844	8551
1	1814	8552
1	1773	8553
1	1739	8554
1	1708	8555
1	1683	8556
1	1665	8557
1	1651	8558
1	1639	8559
1	1636	8560
1	1642	8561
1	1655	8562
1	1673	8563
1	1688	8564
1	1710	8565
1	1734	8566
1	1747	8567
1	1752	8568
1	1752	8569
1	1757	8570
1	1764	8571
1	1765	8572
1	1752	8573
1	1736	8574
1	1705	8575
1	1674	8576
1	1648	8577
1	1638	8578
1	1634	8579
1	1634	8580
1	1647	8581
1	1672	8582
1	1701	8583
1	1738	8584
1	1769	8585
1	1803	8586
1	1843	8587
1	1877	8588
1	1922	8589
1	1967	8590
1	2007	8591
1	2042	8592
1	2080	8593
1	2112	8594
1	2135	8595
1	2166	8596
1	2207	8597
1	2255	8598
1	2302	8599
1	2346	8600
1	2391	8601
1	2435	8602
1	2471	8603
1	2496	8604
1	2519	8605
1	2542	8606
1	2567	8607
1	2590	8608
1	2599	8609
1	2596	8610
1	2581	8611
1	2555	8612
1	2516	8613
1	2471	8614
1	2411	8615
1	2343	8616
1	2282	8617
1	2211	8618
1	2162	8619
1	2111	8620
1	2066	8621
1	2017	8622
1	1973	8623
1	1926	8624
1	1887	8625
1	1856	8626
1	1829	8627
1	1782	8628
1	1737	8629
1	1686	8630
1	1626	8631
1	1576	8632
1	1529	8633
1	1490	8634
1	1474	8635
1	1472	8636
1	1479	8637
1	1501	8638
1	1527	8639
1	1561	8640
1	1607	8641
1	1664	8642
1	1717	8643
1	1770	8644
1	1821	8645
1	1859	8646
1	1887	8647
1	1898	8648
1	1897	8649
1	1882	8650
1	1854	8651
1	1817	8652
1	1770	8653
1	1725	8654
1	1675	8655
1	1625	8656
1	1584	8657
1	1558	8658
1	1544	8659
1	1541	8660
1	1551	8661
1	1571	8662
1	1597	8663
1	1629	8664
1	1660	8665
1	1686	8666
1	1709	8667
1	1728	8668
1	1733	8669
1	1733	8670
1	1728	8671
1	1719	8672
1	1713	8673
1	1708	8674
1	1700	8675
1	1692	8676
1	1684	8677
1	1662	8678
1	1645	8679
1	1625	8680
1	1606	8681
1	1595	8682
1	1593	8683
1	1589	8684
1	1593	8685
1	1597	8686
1	1607	8687
1	1610	8688
1	1611	8689
1	1610	8690
1	1612	8691
1	1610	8692
1	1603	8693
1	1606	8694
1	1606	8695
1	1602	8696
1	1599	8697
1	1607	8698
1	1611	8699
1	1628	8700
1	1651	8701
1	1679	8702
1	1703	8703
1	1731	8704
1	1757	8705
1	1778	8706
1	1793	8707
1	1803	8708
1	1811	8709
1	1791	8710
1	1765	8711
1	1733	8712
1	1699	8713
1	1661	8714
1	1629	8715
1	1605	8716
1	1590	8717
1	1582	8718
1	1589	8719
1	1598	8720
1	1611	8721
1	1629	8722
1	1650	8723
1	1670	8724
1	1692	8725
1	1712	8726
1	1735	8727
1	1751	8728
1	1755	8729
1	1750	8730
1	1738	8731
1	1726	8732
1	1707	8733
1	1688	8734
1	1669	8735
1	1647	8736
1	1622	8737
1	1603	8738
1	1602	8739
1	1609	8740
1	1629	8741
1	1645	8742
1	1662	8743
1	1672	8744
1	1680	8745
1	1686	8746
1	1691	8747
1	1694	8748
1	1693	8749
1	1686	8750
1	1678	8751
1	1664	8752
1	1647	8753
1	1635	8754
1	1625	8755
1	1620	8756
1	1625	8757
1	1647	8758
1	1669	8759
1	1691	8760
1	1712	8761
1	1731	8762
1	1744	8763
1	1751	8764
1	1754	8765
1	1760	8766
1	1764	8767
1	1765	8768
1	1783	8769
1	1801	8770
1	1817	8771
1	1823	8772
1	1825	8773
1	1814	8774
1	1791	8775
1	1769	8776
1	1751	8777
1	1729	8778
1	1712	8779
1	1705	8780
1	1703	8781
1	1711	8782
1	1712	8783
1	1723	8784
1	1738	8785
1	1751	8786
1	1762	8787
1	1782	8788
1	1809	8789
1	1832	8790
1	1852	8791
1	1861	8792
1	1859	8793
1	1855	8794
1	1843	8795
1	1827	8796
1	1801	8797
1	1773	8798
1	1760	8799
1	1751	8800
1	1751	8801
1	1756	8802
1	1769	8803
1	1777	8804
1	1783	8805
1	1791	8806
1	1789	8807
1	1790	8808
1	1789	8809
1	1787	8810
1	1780	8811
1	1777	8812
1	1765	8813
1	1757	8814
1	1740	8815
1	1731	8816
1	1725	8817
1	1727	8818
1	1733	8819
1	1740	8820
1	1757	8821
1	1777	8822
1	1791	8823
1	1800	8824
1	1808	8825
1	1803	8826
1	1796	8827
1	1791	8828
1	1785	8829
1	1775	8830
1	1767	8831
1	1756	8832
1	1737	8833
1	1698	8834
1	1671	8835
1	1646	8836
1	1628	8837
1	1624	8838
1	1638	8839
1	1661	8840
1	1690	8841
1	1713	8842
1	1738	8843
1	1754	8844
1	1765	8845
1	1772	8846
1	1765	8847
1	1754	8848
1	1728	8849
1	1695	8850
1	1652	8851
1	1618	8852
1	1592	8853
1	1571	8854
1	1555	8855
1	1536	8856
1	1513	8857
1	1492	8858
1	1482	8859
1	1487	8860
1	1492	8861
1	1503	8862
1	1532	8863
1	1560	8864
1	1586	8865
1	1613	8866
1	1622	8867
1	1634	8868
1	1633	8869
1	1629	8870
1	1611	8871
1	1590	8872
1	1551	8873
1	1513	8874
1	1474	8875
1	1437	8876
1	1402	8877
1	1381	8878
1	1364	8879
1	1355	8880
1	1344	8881
1	1340	8882
1	1343	8883
1	1354	8884
1	1371	8885
1	1394	8886
1	1409	8887
1	1419	8888
1	1423	8889
1	1424	8890
1	1417	8891
1	1403	8892
1	1384	8893
1	1362	8894
1	1341	8895
1	1321	8896
1	1310	8897
1	1310	8898
1	1321	8899
1	1346	8900
1	1384	8901
1	1424	8902
1	1461	8903
1	1493	8904
1	1528	8905
1	1554	8906
1	1570	8907
1	1584	8908
1	1590	8909
1	1582	8910
1	1557	8911
1	1517	8912
1	1467	8913
1	1412	8914
1	1351	8915
1	1296	8916
1	1250	8917
1	1215	8918
1	1193	8919
1	1430	8940
1	1443	8941
1	1451	8942
1	1460	8943
1	1462	8944
1	1462	8945
1	1462	8946
1	1467	8947
1	1462	8948
1	1458	8949
1	1452	8950
1	1450	8951
1	1445	8952
1	1433	8953
1	1412	8954
1	1377	8955
1	1347	8956
1	1328	8957
1	1311	8958
1	1298	8959
1	1191	8920
1	1203	8921
1	1227	8922
1	1256	8923
1	1287	8924
1	1315	8925
1	1332	8926
1	1353	8927
1	1355	8928
1	1359	8929
1	1364	8930
1	1373	8931
1	1384	8932
1	1400	8933
1	1410	8934
1	1415	8935
1	1420	8936
1	1417	8937
1	1416	8938
1	1423	8939
1	1282	8960
1	1272	8961
1	1274	8962
1	1281	8963
1	1296	8964
1	1319	8965
1	1348	8966
1	1381	8967
1	1413	8968
1	1435	8969
1	1435	8970
1	1416	8971
1	1393	8972
1	1369	8973
1	1337	8974
1	1311	8975
1	1293	8976
1	1293	8977
1	1309	8978
1	1337	8979
1	1370	8980
1	1411	8981
1	1449	8982
1	1485	8983
1	1514	8984
1	1534	8985
1	1545	8986
1	1546	8987
1	1536	8988
1	1517	8989
1	1490	8990
1	1458	8991
1	1424	8992
1	1384	8993
1	1364	8994
1	1346	8995
1	1327	8996
1	1314	8997
1	1315	8998
1	1319	8999
1	1325	9000
1	1333	9001
1	1344	9002
1	1351	9003
1	1366	9004
1	1380	9005
1	1398	9006
1	1415	9007
1	1423	9008
1	1424	9009
1	1422	9010
1	1416	9011
1	1409	9012
1	1407	9013
1	1397	9014
1	1382	9015
1	1376	9016
1	1372	9017
1	1369	9018
1	1369	9019
1	1371	9020
1	1380	9021
1	1393	9022
1	1402	9023
1	1415	9024
1	1424	9025
1	1436	9026
1	1445	9027
1	1449	9028
1	1450	9029
1	1449	9030
1	1443	9031
1	1437	9032
1	1423	9033
1	1406	9034
1	1391	9035
1	1372	9036
1	1366	9037
1	1364	9038
1	1371	9039
1	1380	9040
1	1398	9041
1	1415	9042
1	1437	9043
1	1453	9044
1	1476	9045
1	1489	9046
1	1490	9047
1	1479	9048
1	1472	9049
1	1464	9050
1	1455	9051
1	1449	9052
1	1432	9053
1	1424	9054
1	1413	9055
1	1400	9056
1	1384	9057
1	1374	9058
1	1357	9059
1	1342	9060
1	1337	9061
1	1346	9062
1	1361	9063
1	1383	9064
1	1416	9065
1	1442	9066
1	1463	9067
1	1467	9068
1	1463	9069
1	1453	9070
1	1438	9071
1	1420	9072
1	1406	9073
1	1393	9074
1	1373	9075
1	1364	9076
1	1353	9077
1	1345	9078
1	1345	9079
1	1350	9080
1	1372	9081
1	1399	9082
1	1417	9083
1	1437	9084
1	1461	9085
1	1481	9086
1	1499	9087
1	1507	9088
1	1508	9089
1	1500	9090
1	1476	9091
1	1449	9092
1	1419	9093
1	1382	9094
1	1350	9095
1	1325	9096
1	1312	9097
1	1295	9098
1	1297	9099
1	1311	9100
1	1332	9101
1	1358	9102
1	1392	9103
1	1409	9104
1	1425	9105
1	1441	9106
1	1456	9107
1	1475	9108
1	1495	9109
1	1508	9110
1	1508	9111
1	1494	9112
1	1467	9113
1	1441	9114
1	1409	9115
1	1373	9116
1	1355	9117
1	1355	9118
1	1366	9119
1	1396	9120
1	1423	9121
1	1454	9122
1	1492	9123
1	1519	9124
1	1546	9125
1	1566	9126
1	1571	9127
1	1555	9128
1	1532	9129
1	1506	9130
1	1476	9131
1	1437	9132
1	1395	9133
1	1346	9134
1	1308	9135
1	1279	9136
1	1265	9137
1	1251	9138
1	1247	9139
1	1254	9140
1	1271	9141
1	1302	9142
1	1341	9143
1	1372	9144
1	1412	9145
1	1441	9146
1	1467	9147
1	1494	9148
1	1513	9149
1	1524	9150
1	1521	9151
1	1512	9152
1	1503	9153
1	1494	9154
1	1477	9155
1	1467	9156
1	1458	9157
1	1450	9158
1	1450	9159
1	1372	9180
1	1398	9181
1	1424	9182
1	1450	9183
1	1473	9184
1	1486	9185
1	1490	9186
1	1482	9187
1	1464	9188
1	1450	9189
1	1440	9190
1	1431	9191
1	1418	9192
1	1415	9193
1	1409	9194
1	1406	9195
1	1408	9196
1	1410	9197
1	1417	9198
1	1432	9199
1	1451	9160
1	1456	9161
1	1466	9162
1	1484	9163
1	1499	9164
1	1510	9165
1	1520	9166
1	1526	9167
1	1526	9168
1	1517	9169
1	1502	9170
1	1481	9171
1	1461	9172
1	1431	9173
1	1403	9174
1	1372	9175
1	1345	9176
1	1328	9177
1	1332	9178
1	1348	9179
1	1450	9200
1	1477	9201
1	1514	9202
1	1545	9203
1	1574	9204
1	1593	9205
1	1607	9206
1	1611	9207
1	1608	9208
1	1589	9209
1	1559	9210
1	1536	9211
1	1517	9212
1	1500	9213
1	1477	9214
1	1463	9215
1	1451	9216
1	1454	9217
1	1456	9218
1	1464	9219
1	1469	9220
1	1472	9221
1	1475	9222
1	1481	9223
1	1482	9224
1	1485	9225
1	1490	9226
1	1500	9227
1	1491	9228
1	1481	9229
1	1473	9230
1	1453	9231
1	1436	9232
1	1418	9233
1	1402	9234
1	1394	9235
1	1384	9236
1	1377	9237
1	1376	9238
1	1376	9239
1	1391	9240
1	1413	9241
1	1450	9242
1	1479	9243
1	1502	9244
1	1513	9245
1	1526	9246
1	1543	9247
1	1566	9248
1	1589	9249
1	1611	9250
1	1620	9251
1	1615	9252
1	1604	9253
1	1578	9254
1	1546	9255
1	1517	9256
1	1490	9257
1	1463	9258
1	1446	9259
1	1439	9260
1	1440	9261
1	1441	9262
1	1438	9263
1	1442	9264
1	1449	9265
1	1453	9266
1	1450	9267
1	1449	9268
1	1435	9269
1	1420	9270
1	1408	9271
1	1396	9272
1	1384	9273
1	1384	9274
1	1391	9275
1	1398	9276
1	1407	9277
1	1410	9278
1	1422	9279
1	1432	9280
1	1445	9281
1	1451	9282
1	1472	9283
1	1489	9284
1	1507	9285
1	1528	9286
1	1533	9287
1	1530	9288
1	1517	9289
1	1499	9290
1	1472	9291
1	1443	9292
1	1409	9293
1	1380	9294
1	1356	9295
1	1341	9296
1	1331	9297
1	1332	9298
1	1341	9299
1	1358	9300
1	1374	9301
1	1398	9302
1	1419	9303
1	1436	9304
1	1448	9305
1	1462	9306
1	1476	9307
1	1480	9308
1	1487	9309
1	1493	9310
1	1489	9311
1	1476	9312
1	1454	9313
1	1425	9314
1	1398	9315
1	1371	9316
1	1358	9317
1	1361	9318
1	1376	9319
1	1402	9320
1	1428	9321
1	1443	9322
1	1463	9323
1	1494	9324
1	1523	9325
1	1538	9326
1	1543	9327
1	1550	9328
1	1547	9329
1	1537	9330
1	1525	9331
1	1503	9332
1	1482	9333
1	1459	9334
1	1435	9335
1	1413	9336
1	1398	9337
1	1384	9338
1	1382	9339
1	1392	9340
1	1406	9341
1	1424	9342
1	1450	9343
1	1468	9344
1	1488	9345
1	1502	9346
1	1511	9347
1	1519	9348
1	1521	9349
1	1518	9350
1	1507	9351
1	1500	9352
1	1487	9353
1	1481	9354
1	1477	9355
1	1479	9356
1	1481	9357
1	1490	9358
1	1499	9359
1	1501	9360
1	1495	9361
1	1482	9362
1	1467	9363
1	1450	9364
1	1428	9365
1	1405	9366
1	1383	9367
1	1362	9368
1	1348	9369
1	1345	9370
1	1346	9371
1	1355	9372
1	1378	9373
1	1410	9374
1	1438	9375
1	1464	9376
1	1490	9377
1	1520	9378
1	1562	9379
1	2219	9400
1	2255	9401
1	2276	9402
1	2292	9403
1	2286	9404
1	2255	9405
1	2197	9406
1	2133	9407
1	2061	9408
1	1989	9409
1	1907	9410
1	1821	9411
1	1730	9412
1	1643	9413
1	1575	9414
1	1519	9415
1	1476	9416
1	1445	9417
1	1426	9418
1	1420	9419
1	1616	9380
1	1678	9381
1	1739	9382
1	1791	9383
1	1843	9384
1	1888	9385
1	1926	9386
1	1962	9387
1	1994	9388
1	2009	9389
1	2021	9390
1	2027	9391
1	2032	9392
1	2034	9393
1	2034	9394
1	2039	9395
1	2057	9396
1	2093	9397
1	2137	9398
1	2182	9399
1	1413	9420
1	1419	9421
1	1429	9422
1	1437	9423
1	1445	9424
1	1453	9425
1	1458	9426
1	1453	9427
1	1449	9428
1	1441	9429
1	1434	9430
1	1423	9431
1	1409	9432
1	1398	9433
1	1390	9434
1	1398	9435
1	1401	9436
1	1417	9437
1	1434	9438
1	1445	9439
1	1452	9440
1	1464	9441
1	1476	9442
1	1501	9443
1	1526	9444
1	1557	9445
1	1590	9446
1	1608	9447
1	1619	9448
1	1611	9449
1	1598	9450
1	1581	9451
1	1570	9452
1	1543	9453
1	1515	9454
1	1490	9455
1	1475	9456
1	1465	9457
1	1456	9458
1	1463	9459
1	1483	9460
1	1503	9461
1	1523	9462
1	1536	9463
1	1540	9464
1	1543	9465
1	1542	9466
1	1542	9467
1	1531	9468
1	1517	9469
1	1503	9470
1	1487	9471
1	1471	9472
1	1442	9473
1	1424	9474
1	1409	9475
1	1400	9476
1	1400	9477
1	1404	9478
1	1404	9479
1	1412	9480
1	1430	9481
1	1460	9482
1	1494	9483
1	1525	9484
1	1551	9485
1	1571	9486
1	1585	9487
1	1597	9488
1	1607	9489
1	1618	9490
1	1618	9491
1	1610	9492
1	1606	9493
1	1590	9494
1	1577	9495
1	1565	9496
1	1556	9497
1	1553	9498
1	1559	9499
1	1580	9500
1	1597	9501
1	1613	9502
1	1619	9503
1	1621	9504
1	1619	9505
1	1607	9506
1	1592	9507
1	1580	9508
1	1555	9509
1	1539	9510
1	1529	9511
1	1516	9512
1	1494	9513
1	1472	9514
1	1446	9515
1	1429	9516
1	1424	9517
1	1411	9518
1	1412	9519
1	1422	9520
1	1445	9521
1	1481	9522
1	1529	9523
1	1582	9524
1	1634	9525
1	1670	9526
1	1705	9527
1	1718	9528
1	1726	9529
1	1715	9530
1	1692	9531
1	1661	9532
1	1628	9533
1	1594	9534
1	1566	9535
1	1547	9536
1	1538	9537
1	1535	9538
1	1542	9539
1	1557	9540
1	1579	9541
1	1606	9542
1	1634	9543
1	1664	9544
1	1690	9545
1	1710	9546
1	1715	9547
1	1701	9548
1	1686	9549
1	1665	9550
1	1647	9551
1	1633	9552
1	1621	9553
1	1612	9554
1	1610	9555
1	1616	9556
1	1636	9557
1	1660	9558
1	1687	9559
1	1715	9560
1	1739	9561
1	1764	9562
1	1786	9563
1	1796	9564
1	1809	9565
1	1813	9566
1	1818	9567
1	1818	9568
1	1801	9569
1	1778	9570
1	1750	9571
1	1724	9572
1	1705	9573
1	1687	9574
1	1679	9575
1	1670	9576
1	1672	9577
1	1668	9578
1	1670	9579
1	1681	9580
1	1702	9581
1	1724	9582
1	1739	9583
1	1746	9584
1	1751	9585
1	1753	9586
1	1759	9587
1	1767	9588
1	1776	9589
1	1779	9590
1	1783	9591
1	1787	9592
1	1782	9593
1	1782	9594
1	1778	9595
1	1770	9596
1	1770	9597
1	1778	9598
1	1787	9599
1	1800	9600
1	1826	9601
1	1843	9602
1	1845	9603
1	1843	9604
1	1840	9605
1	1831	9606
1	1831	9607
1	1821	9608
1	1819	9609
1	1809	9610
1	1789	9611
1	1765	9612
1	1752	9613
1	1737	9614
1	1729	9615
1	1733	9616
1	1744	9617
1	1756	9618
1	1769	9619
1	1634	9640
1	1625	9641
1	1621	9642
1	1633	9643
1	1635	9644
1	1638	9645
1	1634	9646
1	1622	9647
1	1597	9648
1	1577	9649
1	1553	9650
1	1529	9651
1	1513	9652
1	1500	9653
1	1495	9654
1	1493	9655
1	1487	9656
1	1484	9657
1	1490	9658
1	1497	9659
1	1782	9620
1	1793	9621
1	1796	9622
1	1803	9623
1	1811	9624
1	1814	9625
1	1814	9626
1	1814	9627
1	1803	9628
1	1789	9629
1	1769	9630
1	1753	9631
1	1740	9632
1	1724	9633
1	1710	9634
1	1695	9635
1	1683	9636
1	1676	9637
1	1660	9638
1	1651	9639
1	1508	9660
1	1526	9661
1	1537	9662
1	1546	9663
1	1556	9664
1	1566	9665
1	1577	9666
1	1581	9667
1	1571	9668
1	1555	9669
1	1534	9670
1	1503	9671
1	1468	9672
1	1443	9673
1	1420	9674
1	1399	9675
1	1384	9676
1	1379	9677
1	1377	9678
1	1393	9679
1	1413	9680
1	1436	9681
1	1456	9682
1	1468	9683
1	1479	9684
1	1485	9685
1	1490	9686
1	1499	9687
1	1501	9688
1	1492	9689
1	1479	9690
1	1460	9691
1	1437	9692
1	1413	9693
1	1391	9694
1	1369	9695
1	1356	9696
1	1350	9697
1	1350	9698
1	1364	9699
1	1377	9700
1	1398	9701
1	1424	9702
1	1455	9703
1	1478	9704
1	1499	9705
1	1514	9706
1	1523	9707
1	1525	9708
1	1525	9709
1	1517	9710
1	1508	9711
1	1499	9712
1	1476	9713
1	1454	9714
1	1431	9715
1	1415	9716
1	1405	9717
1	1399	9718
1	1391	9719
1	1382	9720
1	1396	9721
1	1413	9722
1	1432	9723
1	1450	9724
1	1476	9725
1	1505	9726
1	1521	9727
1	1535	9728
1	1538	9729
1	1529	9730
1	1512	9731
1	1496	9732
1	1476	9733
1	1450	9734
1	1424	9735
1	1406	9736
1	1400	9737
1	1410	9738
1	1420	9739
1	1435	9740
1	1450	9741
1	1466	9742
1	1468	9743
1	1474	9744
1	1481	9745
1	1486	9746
1	1490	9747
1	1492	9748
1	1492	9749
1	1491	9750
1	1490	9751
1	1487	9752
1	1479	9753
1	1468	9754
1	1450	9755
1	1435	9756
1	1423	9757
1	1417	9758
1	1424	9759
1	1435	9760
1	1445	9761
1	1456	9762
1	1476	9763
1	1490	9764
1	1507	9765
1	1517	9766
1	1528	9767
1	1539	9768
1	1543	9769
1	1535	9770
1	1530	9771
1	1521	9772
1	1503	9773
1	1492	9774
1	1476	9775
1	1465	9776
1	1462	9777
1	1463	9778
1	1473	9779
1	1484	9780
1	1503	9781
1	1527	9782
1	1542	9783
1	1556	9784
1	1570	9785
1	1580	9786
1	1582	9787
1	1574	9788
1	1561	9789
1	1542	9790
1	1517	9791
1	1492	9792
1	1480	9793
1	1469	9794
1	1462	9795
1	1456	9796
1	1454	9797
1	1454	9798
1	1458	9799
1	1461	9800
1	1471	9801
1	1481	9802
1	1490	9803
1	1497	9804
1	1502	9805
1	1504	9806
1	1503	9807
1	1503	9808
1	1499	9809
1	1490	9810
1	1481	9811
1	1468	9812
1	1459	9813
1	1445	9814
1	1437	9815
1	1433	9816
1	1436	9817
1	1448	9818
1	1465	9819
1	1499	9820
1	1530	9821
1	1563	9822
1	1593	9823
1	1625	9824
1	1639	9825
1	1651	9826
1	1658	9827
1	1646	9828
1	1634	9829
1	1615	9830
1	1587	9831
1	1558	9832
1	1536	9833
1	1518	9834
1	1508	9835
1	1508	9836
1	1517	9837
1	1531	9838
1	1546	9839
1	1437	9860
1	1478	9861
1	1529	9862
1	1580	9863
1	1606	9864
1	1625	9865
1	1634	9866
1	1634	9867
1	1631	9868
1	1610	9869
1	1592	9870
1	1573	9871
1	1559	9872
1	1543	9873
1	1524	9874
1	1502	9875
1	1480	9876
1	1468	9877
1	1455	9878
1	1460	9879
1	1560	9840
1	1583	9841
1	1599	9842
1	1613	9843
1	1634	9844
1	1649	9845
1	1659	9846
1	1652	9847
1	1621	9848
1	1589	9849
1	1536	9850
1	1482	9851
1	1438	9852
1	1406	9853
1	1373	9854
1	1355	9855
1	1345	9856
1	1346	9857
1	1364	9858
1	1400	9859
1	1464	9880
1	1476	9881
1	1482	9882
1	1493	9883
1	1499	9884
1	1500	9885
1	1494	9886
1	1490	9887
1	1480	9888
1	1471	9889
1	1467	9890
1	1476	9891
1	1489	9892
1	1504	9893
1	1518	9894
1	1530	9895
1	1538	9896
1	1538	9897
1	1543	9898
1	1547	9899
1	1550	9900
1	1555	9901
1	1568	9902
1	1584	9903
1	1607	9904
1	1622	9905
1	1632	9906
1	1634	9907
1	1625	9908
1	1620	9909
1	1607	9910
1	1594	9911
1	1580	9912
1	1567	9913
1	1557	9914
1	1555	9915
1	1556	9916
1	1561	9917
1	1566	9918
1	1567	9919
1	1555	9920
1	1547	9921
1	1535	9922
1	1530	9923
1	1535	9924
1	1541	9925
1	1542	9926
1	1538	9927
1	1530	9928
1	1512	9929
1	1495	9930
1	1476	9931
1	1459	9932
1	1440	9933
1	1424	9934
1	1409	9935
1	1398	9936
1	1398	9937
1	1400	9938
1	1409	9939
1	1476	9960
1	1502	9961
1	1530	9962
1	1563	9963
1	1594	9964
1	1622	9965
1	1638	9966
1	1643	9967
1	1631	9968
1	1621	9969
1	1609	9970
1	1600	9971
1	1581	9972
1	1569	9973
1	1553	9974
1	1533	9975
1	1527	9976
1	1529	9977
1	1533	9978
1	1544	9979
1	1555	9980
1	1575	9981
1	1602	9982
1	1634	9983
1	1667	9984
1	1699	9985
1	1724	9986
1	1738	9987
1	1747	9988
1	1733	9989
1	1709	9990
1	1674	9991
1	1638	9992
1	1605	9993
1	1561	9994
1	1518	9995
1	1478	9996
1	1454	9997
1	1437	9998
1	1437	9999
1	1427	9960
1	1450	9961
1	1476	9962
1	1503	9963
1	1528	9964
1	1548	9965
1	1568	9966
1	1582	9967
1	1585	9968
1	1580	9969
1	1567	9970
1	1551	9971
1	1530	9972
1	1499	9973
1	1476	9974
1	1453	9975
1	1440	9976
1	1438	9977
1	1450	9978
1	1461	9979
1	1445	10000
1	1456	10001
1	1477	10002
1	1508	10003
1	1539	10004
1	1561	10005
1	1583	10006
1	1604	10007
1	1613	10008
1	1616	10009
1	1607	10010
1	1581	10011
1	1555	10012
1	1521	10013
1	1500	10014
1	1476	10015
1	1454	10016
1	1445	10017
1	1449	10018
1	1456	10019
1	1472	10020
1	1502	10021
1	1541	10022
1	1584	10023
1	1607	10024
1	1634	10025
1	1652	10026
1	1660	10027
1	1662	10028
1	1663	10029
1	1660	10030
1	1647	10031
1	1622	10032
1	1589	10033
1	1551	10034
1	1517	10035
1	1489	10036
1	1473	10037
1	1458	10038
1	1452	10039
1	1456	10040
1	1469	10041
1	1481	10042
1	1497	10043
1	1507	10044
1	1523	10045
1	1540	10046
1	1555	10047
1	1567	10048
1	1565	10049
1	1553	10050
1	1529	10051
1	1501	10052
1	1475	10053
1	1451	10054
1	1438	10055
1	1435	10056
1	1433	10057
1	1427	10058
1	1436	10059
1	1440	10060
1	1450	10061
1	1467	10062
1	1481	10063
1	1490	10064
1	1504	10065
1	1521	10066
1	1533	10067
1	1542	10068
1	1549	10069
1	1559	10070
1	1561	10071
1	1557	10072
1	1553	10073
1	1542	10074
1	1530	10075
1	1520	10076
1	1508	10077
1	1503	10078
1	1502	10079
1	1499	10080
1	1512	10081
1	1529	10082
1	1549	10083
1	1571	10084
1	1594	10085
1	1611	10086
1	1629	10087
1	1629	10088
1	1627	10089
1	1610	10090
1	1582	10091
