#Date:= 2024-10-01T15:24:32.792675
#Sampling Rate(Hz):= 1000
#Labels:= LOD	ECG	TS
1	1776	20
1	878	21
1	669	22
1	512	23
1	432	24
1	422	25
1	467	26
1	561	27
1	699	28
1	936	29
1	1247	30
1	1612	31
1	1969	32
1	2264	33
1	2472	34
1	2536	35
1	2485	36
1	2268	37
1	1937	38
1	1596	39
1	1269	60
1	982	61
1	751	62
1	586	63
1	483	64
1	455	65
1	495	66
1	598	67
1	743	68
1	981	69
1	1298	70
1	1661	71
1	2009	72
1	2296	73
1	2495	74
1	2539	75
1	2479	76
1	2260	77
1	1923	78
1	1581	79
1	1264	80
1	970	81
1	734	82
1	576	83
1	485	84
1	461	85
1	497	86
1	586	87
1	715	88
1	940	89
1	1246	90
1	1602	91
1	1948	92
1	2232	93
1	2428	94
1	2493	95
1	2419	96
1	2196	97
1	1869	98
1	1523	99
1	1281	60
1	1005	61
1	790	62
1	644	63
1	567	64
1	541	65
1	584	66
1	667	67
1	806	68
1	1036	69
1	1341	70
1	1688	71
1	2028	72
1	2314	73
1	2504	74
1	2558	75
1	2496	76
1	2273	77
1	1942	78
1	1595	79
1	1194	100
1	903	101
1	678	102
1	521	103
1	441	104
1	426	105
1	459	106
1	544	107
1	670	108
1	900	109
1	1223	110
1	1595	111
1	1953	112
1	2250	113
1	2448	114
1	2513	115
1	2445	116
1	2230	117
1	1896	118
1	1551	119
1	1218	120
1	912	121
1	690	122
1	525	123
1	441	124
1	425	125
1	468	126
1	561	127
1	698	128
1	932	129
1	1245	130
1	1612	131
1	1967	132
1	2264	133
1	2477	134
1	2537	135
1	2488	136
1	2273	137
1	1939	138
1	1584	139
1	1245	140
1	949	141
1	705	142
1	531	143
1	423	144
1	386	145
1	408	146
1	483	147
1	612	148
1	839	149
1	1159	150
1	1529	151
1	1895	152
1	2210	153
1	2454	154
1	2570	155
1	2558	156
1	2419	157
1	2134	158
1	1841	159
1	1556	160
1	1310	161
1	1131	162
1	1022	163
1	991	164
1	1023	165
1	1116	166
1	1261	167
1	1448	168
1	1705	169
1	2027	170
1	2386	171
1	2712	172
1	2997	173
1	3130	174
1	3130	175
1	3067	176
1	2789	177
1	2410	178
1	1990	179
1	1590	180
1	1225	181
1	914	182
1	681	183
1	532	184
1	461	185
1	455	186
1	507	187
1	613	188
1	827	189
1	1141	190
1	1508	191
1	1869	192
1	2176	193
1	2394	194
1	2482	195
1	2435	196
1	2237	197
1	1917	198
1	1569	199
1	1242	200
1	938	201
1	692	202
1	513	203
1	407	204
1	374	205
1	397	206
1	478	207
1	612	208
1	837	209
1	1147	210
1	1511	211
1	1869	212
1	2171	213
1	2397	214
1	2496	215
1	2449	216
1	2255	217
1	1933	218
1	1589	219
1	1267	220
1	971	221
1	718	222
1	587	223
1	484	224
1	456	225
1	490	226
1	578	227
1	704	228
1	924	229
1	1239	230
1	1596	231
1	1949	232
1	2245	233
1	2458	234
1	2525	235
1	2480	236
1	2271	237
1	1946	238
1	1600	239
1	1268	240
1	979	241
1	747	242
1	587	243
1	495	244
1	472	245
1	503	246
1	586	247
1	710	248
1	929	249
1	1231	250
1	1593	251
1	1957	252
1	2266	253
1	2491	254
1	2558	255
1	2509	256
1	2296	257
1	1959	258
1	1605	259
1	1286	260
1	996	261
1	756	262
1	589	263
1	494	264
1	470	265
1	502	266
1	586	267
1	715	268
1	942	269
1	1254	270
1	1620	271
1	1983	272
1	2289	273
1	2509	274
1	2596	275
1	2563	276
1	2390	277
1	2069	278
1	1725	279
1	1398	280
1	1098	281
1	855	282
1	680	283
1	582	284
1	546	285
1	584	286
1	657	287
1	769	288
1	980	289
1	1280	290
1	1644	291
1	2003	292
1	2323	293
1	2535	294
1	2617	295
1	2575	296
1	2394	297
1	2083	298
1	1751	299
1	1436	300
1	1143	301
1	902	302
1	726	303
1	617	304
1	581	305
1	600	306
1	676	307
1	803	308
1	1029	309
1	1332	310
1	1694	311
1	2048	312
1	2349	313
1	2552	314
1	2622	315
1	2571	316
1	2382	317
1	2061	318
1	1719	319
1	1410	320
1	1118	321
1	867	322
1	734	323
1	647	324
1	626	325
1	666	326
1	757	327
1	900	328
1	1123	329
1	1424	330
1	1776	331
1	2126	332
1	2432	333
1	2636	334
1	2716	335
1	2669	336
1	2487	337
1	2158	338
1	1836	339
1	1668	360
1	1372	361
1	1132	362
1	948	363
1	836	364
1	810	365
1	854	366
1	949	367
1	1085	368
1	1310	369
1	1616	370
1	1978	371
1	2343	372
1	2644	373
1	2856	374
1	2945	375
1	2892	376
1	2697	377
1	2391	378
1	2038	379
1	1521	340
1	1238	341
1	1009	342
1	846	343
1	758	344
1	734	345
1	769	346
1	860	347
1	998	348
1	1226	349
1	1544	350
1	1908	351
1	2276	352
1	2584	353
1	2802	354
1	2894	355
1	2851	356
1	2663	357
1	2354	358
1	2000	359
1	1692	400
1	1398	401
1	1151	402
1	959	403
1	848	404
1	797	405
1	808	406
1	865	407
1	977	408
1	1178	409
1	1466	410
1	1809	411
1	2152	412
1	2446	413
1	2642	414
1	2719	415
1	2678	416
1	2509	417
1	2192	418
1	1856	419
1	1724	380
1	1432	381
1	1188	382
1	1011	383
1	904	384
1	869	385
1	885	386
1	952	387
1	1062	388
1	1257	389
1	1535	390
1	1878	391
1	2222	392
1	2535	393
1	2745	394
1	2836	395
1	2803	396
1	2635	397
1	2345	398
1	2014	399
1	1529	420
1	1220	421
1	992	422
1	817	423
1	713	424
1	670	425
1	692	426
1	759	427
1	865	428
1	1061	429
1	1335	430
1	1677	431
1	2013	432
1	2301	433
1	2511	434
1	2582	435
1	2543	436
1	2369	437
1	2065	438
1	1733	439
1	1415	440
1	1134	441
1	896	442
1	720	443
1	616	444
1	586	445
1	612	446
1	683	447
1	796	448
1	1006	449
1	1290	450
1	1634	451
1	1978	452
1	2279	453
1	2496	454
1	2585	455
1	2557	456
1	2393	457
1	2086	458
1	1750	459
1	1430	460
1	1136	461
1	893	462
1	719	463
1	625	464
1	593	465
1	616	466
1	693	467
1	821	468
1	1035	469
1	1332	470
1	1674	471
1	2017	472
1	2316	473
1	2525	474
1	2612	475
1	2581	476
1	2415	477
1	2105	478
1	1764	479
1	1500	500
1	1191	501
1	936	502
1	747	503
1	635	504
1	592	505
1	610	506
1	676	507
1	790	508
1	1003	509
1	1288	510
1	1635	511
1	1986	512
1	2288	513
1	2511	514
1	2602	515
1	2570	516
1	2408	517
1	2109	518
1	1777	519
1	1445	480
1	1148	481
1	902	482
1	721	483
1	612	484
1	575	485
1	594	486
1	665	487
1	780	488
1	991	489
1	1285	490
1	1649	491
1	2016	492
1	2345	493
1	2566	494
1	2662	495
1	2635	496
1	2476	497
1	2165	498
1	1818	499
1	1467	520
1	1165	521
1	903	522
1	769	523
1	666	524
1	634	525
1	653	526
1	720	527
1	840	528
1	1046	529
1	1346	530
1	1697	531
1	2053	532
1	2354	533
1	2565	534
1	2655	535
1	2625	536
1	2471	537
1	2170	538
1	1843	539
1	1524	540
1	1235	541
1	987	542
1	798	543
1	690	544
1	651	545
1	666	546
1	739	547
1	849	548
1	1052	549
1	1335	550
1	1686	551
1	2046	552
1	2359	553
1	2581	554
1	2682	555
1	2660	556
1	2503	557
1	2197	558
1	1857	559
1	1536	560
1	1230	561
1	980	562
1	793	563
1	675	564
1	633	565
1	651	566
1	718	567
1	833	568
1	1032	569
1	1315	570
1	1660	571
1	2012	572
1	2320	573
1	2543	574
1	2655	575
1	2640	576
1	2496	577
1	2202	578
1	1877	579
1	1563	580
1	1269	581
1	1029	582
1	848	583
1	742	584
1	695	585
1	708	586
1	769	587
1	874	588
1	1067	589
1	1346	590
1	1689	591
1	2035	592
1	2350	593
1	2568	594
1	2664	595
1	2647	596
1	2501	597
1	2210	598
1	1886	599
1	1578	600
1	1292	601
1	1047	602
1	864	603
1	756	604
1	717	605
1	733	606
1	798	607
1	916	608
1	1122	609
1	1404	610
1	1738	611
1	2085	612
1	2395	613
1	2611	614
1	2706	615
1	2679	616
1	2515	617
1	2212	618
1	1878	619
1	1560	620
1	1260	621
1	985	622
1	837	623
1	726	624
1	687	625
1	710	626
1	791	627
1	918	628
1	1122	629
1	1405	630
1	1738	631
1	2079	632
1	2383	633
1	2595	634
1	2699	635
1	2676	636
1	2523	637
1	2240	638
1	1924	639
1	1649	660
1	1346	661
1	1095	662
1	909	663
1	798	664
1	762	665
1	781	666
1	852	667
1	959	668
1	1148	669
1	1430	670
1	1766	671
1	2119	672
1	2432	673
1	2640	674
1	2729	675
1	2705	676
1	2543	677
1	2260	678
1	1926	679
1	1618	640
1	1333	641
1	1102	642
1	926	643
1	822	644
1	783	645
1	806	646
1	874	647
1	994	648
1	1193	649
1	1490	650
1	1829	651
1	2173	652
1	2492	653
1	2699	654
1	2801	655
1	2776	656
1	2621	657
1	2331	658
1	1985	659
1	1616	680
1	1319	681
1	1074	682
1	887	683
1	774	684
1	737	685
1	751	686
1	821	687
1	929	688
1	1124	689
1	1394	690
1	1718	691
1	2057	692
1	2367	693
1	2579	694
1	2676	695
1	2654	696
1	2509	697
1	2222	698
1	1895	699
1	1582	700
1	1293	701
1	1059	702
1	880	703
1	768	704
1	717	705
1	728	706
1	792	707
1	896	708
1	1093	709
1	1369	710
1	1713	711
1	2067	712
1	2380	713
1	2599	714
1	2706	715
1	2690	716
1	2543	717
1	2262	718
1	1922	719
1	1600	720
1	1296	721
1	1061	722
1	875	723
1	767	724
1	722	725
1	743	726
1	818	727
1	927	728
1	1116	729
1	1397	730
1	1726	731
1	2070	732
1	2380	733
1	2595	734
1	2699	735
1	2684	736
1	2535	737
1	2258	738
1	1927	739
1	1607	740
1	1312	741
1	1071	742
1	897	743
1	786	744
1	741	745
1	744	746
1	796	747
1	893	748
1	1078	749
1	1340	750
1	1665	751
1	2012	752
1	2327	753
1	2561	754
1	2694	755
1	2706	756
1	2600	757
1	2371	758
1	2080	759
1	1819	760
1	1584	761
1	1400	762
1	1274	763
1	1214	764
1	1210	765
1	1270	766
1	1396	767
1	1555	768
1	1791	769
1	2109	770
1	2492	771
1	2845	772
1	3130	773
1	3130	774
1	3130	775
1	3130	776
1	3130	777
1	2924	778
1	2581	779
1	2236	780
1	1908	781
1	1625	782
1	1398	783
1	1225	784
1	1122	785
1	1073	786
1	1084	787
1	1142	788
1	1283	789
1	1517	790
1	1817	791
1	2130	792
1	2430	793
1	2630	794
1	2725	795
1	2706	796
1	2566	797
1	2296	798
1	1961	799
1	1670	800
1	1384	801
1	1147	802
1	961	803
1	848	804
1	810	805
1	830	806
1	900	807
1	1015	808
1	1202	809
1	1473	810
1	1809	811
1	2156	812
1	2476	813
1	2694	814
1	2812	815
1	2805	816
1	2657	817
1	2391	818
1	2052	819
1	1800	860
1	1503	861
1	1242	862
1	1049	863
1	923	864
1	869	865
1	876	866
1	941	867
1	1054	868
1	1241	869
1	1517	870
1	1852	871
1	2198	872
1	2514	873
1	2736	874
1	2859	875
1	2854	876
1	2719	877
1	2464	878
1	2127	879
1	1817	840
1	1533	841
1	1284	842
1	1093	843
1	970	844
1	913	845
1	915	846
1	981	847
1	1091	848
1	1275	849
1	1549	850
1	1881	851
1	2236	852
1	2547	853
1	2773	854
1	2888	855
1	2879	856
1	2727	857
1	2462	858
1	2117	859
1	1734	820
1	1432	821
1	1152	822
1	1006	823
1	879	824
1	826	825
1	837	826
1	898	827
1	998	828
1	1162	829
1	1432	830
1	1764	831
1	2124	832
1	2458	833
1	2700	834
1	2839	835
1	2850	836
1	2724	837
1	2471	838
1	2131	839
1	1815	880
1	1518	881
1	1271	882
1	1092	883
1	984	884
1	936	885
1	953	886
1	1026	887
1	1134	888
1	1314	889
1	1593	890
1	1932	891
1	2283	892
1	2584	893
1	2807	894
1	2924	895
1	2920	896
1	2773	897
1	2508	898
1	2170	899
1	1849	900
1	1564	901
1	1321	902
1	1138	903
1	1020	904
1	977	905
1	988	906
1	1050	907
1	1154	908
1	1334	909
1	1606	910
1	1936	911
1	2292	912
1	2602	913
1	2835	914
1	2969	915
1	2970	916
1	2835	917
1	2576	918
1	2257	919
1	1948	920
1	1651	921
1	1368	922
1	1224	923
1	1111	924
1	1065	925
1	1071	926
1	1134	927
1	1241	928
1	1427	929
1	1689	930
1	2016	931
1	2353	932
1	2647	933
1	2877	934
1	3004	935
1	3000	936
1	2855	937
1	2593	938
1	2273	939
1	2091	960
1	1809	961
1	1571	962
1	1395	963
1	1274	964
1	1228	965
1	1236	966
1	1293	967
1	1397	968
1	1564	969
1	1825	970
1	2149	971
1	2508	972
1	2812	973
1	3071	974
1	3130	975
1	3130	976
1	3093	977
1	2808	978
1	2488	979
1	1957	940
1	1670	941
1	1430	942
1	1242	943
1	1132	944
1	1084	945
1	1097	946
1	1162	947
1	1274	948
1	1463	949
1	1737	950
1	2079	951
1	2456	952
1	2765	953
1	3008	954
1	3130	955
1	3130	956
1	3017	957
1	2745	958
1	2429	959
1	2166	1000
1	1870	1001
1	1619	1002
1	1427	1003
1	1293	1004
1	1228	1005
1	1229	1006
1	1281	1007
1	1375	1008
1	1542	1009
1	1795	1010
1	2109	1011
1	2449	1012
1	2734	1013
1	2963	1014
1	3092	1015
1	3086	1016
1	2934	1017
1	2654	1018
1	2317	1019
1	2156	980
1	1860	981
1	1607	982
1	1422	983
1	1295	984
1	1242	985
1	1253	986
1	1318	987
1	1430	988
1	1613	989
1	1883	990
1	2211	991
1	2562	992
1	2876	993
1	3123	994
1	3130	995
1	3130	996
1	3087	997
1	2811	998
1	2496	999
1	1975	1020
1	1660	1021
1	1413	1022
1	1215	1023
1	1089	1024
1	1032	1025
1	1027	1026
1	1076	1027
1	1170	1028
1	1340	1029
1	1589	1030
1	1918	1031
1	2257	1032
1	2561	1033
1	2791	1034
1	2925	1035
1	2926	1036
1	2783	1037
1	2522	1038
1	2184	1039
1	1864	1040
1	1569	1041
1	1312	1042
1	1121	1043
1	994	1044
1	938	1045
1	951	1046
1	1016	1047
1	1109	1048
1	1273	1049
1	1536	1050
1	1862	1051
1	2210	1052
1	2527	1053
1	2761	1054
1	2901	1055
1	2913	1056
1	2790	1057
1	2544	1058
1	2213	1059
1	1897	1060
1	1607	1061
1	1350	1062
1	1160	1063
1	1031	1064
1	965	1065
1	978	1066
1	1033	1067
1	1127	1068
1	1293	1069
1	1559	1070
1	1895	1071
1	2247	1072
1	2554	1073
1	2774	1074
1	2901	1075
1	2914	1076
1	2787	1077
1	2539	1078
1	2215	1079
1	1897	1080
1	1607	1081
1	1359	1082
1	1172	1083
1	1049	1084
1	1004	1085
1	1014	1086
1	1075	1087
1	1179	1088
1	1346	1089
1	1607	1090
1	1932	1091
1	2274	1092
1	2571	1093
1	2786	1094
1	2905	1095
1	2901	1096
1	2751	1097
1	2485	1098
1	2131	1099
1	1817	1100
1	1520	1101
1	1271	1102
1	1086	1103
1	976	1104
1	931	1105
1	953	1106
1	1026	1107
1	1143	1108
1	1320	1109
1	1581	1110
1	1906	1111
1	2250	1112
1	2558	1113
1	2797	1114
1	2942	1115
1	2959	1116
1	2835	1117
1	2581	1118
1	2250	1119
1	1921	1120
1	1606	1121
1	1314	1122
1	1161	1123
1	1031	1124
1	978	1125
1	984	1126
1	1040	1127
1	1142	1128
1	1315	1129
1	1580	1130
1	1906	1131
1	2263	1132
1	2570	1133
1	2809	1134
1	2938	1135
1	2939	1136
1	2806	1137
1	2543	1138
1	2199	1139
1	1948	1160
1	1648	1161
1	1397	1162
1	1191	1163
1	1062	1164
1	1005	1165
1	1005	1166
1	1060	1167
1	1162	1168
1	1330	1169
1	1592	1170
1	1922	1171
1	2279	1172
1	2600	1173
1	2849	1174
1	3000	1175
1	3012	1176
1	2887	1177
1	2640	1178
1	2322	1179
1	2001	1180
1	1711	1181
1	1456	1182
1	1260	1183
1	1129	1184
1	1063	1185
1	1060	1186
1	1110	1187
1	1206	1188
1	1357	1189
1	1607	1190
1	1924	1191
1	2272	1192
1	2581	1193
1	2819	1194
1	2967	1195
1	2985	1196
1	2869	1197
1	2624	1198
1	2302	1199
1	1859	1140
1	1560	1141
1	1305	1142
1	1117	1143
1	998	1144
1	948	1145
1	965	1146
1	1043	1147
1	1161	1148
1	1337	1149
1	1597	1150
1	1916	1151
1	2261	1152
1	2572	1153
1	2810	1154
1	2955	1155
1	2968	1156
1	2844	1157
1	2594	1158
1	2269	1159
1	1963	1200
1	1660	1201
1	1395	1202
1	1179	1203
1	1035	1204
1	965	1205
1	955	1206
1	1006	1207
1	1099	1208
1	1258	1209
1	1508	1210
1	1837	1211
1	2188	1212
1	2523	1213
1	2775	1214
1	2936	1215
1	2967	1216
1	2852	1217
1	2606	1218
1	2275	1219
1	1948	1220
1	1625	1221
1	1323	1222
1	1174	1223
1	1046	1224
1	981	1225
1	981	1226
1	1035	1227
1	1131	1228
1	1291	1229
1	1544	1230
1	1858	1231
1	2197	1232
1	2523	1233
1	2762	1234
1	2908	1235
1	2921	1236
1	2816	1237
1	2583	1238
1	2273	1239
1	1974	1240
1	1704	1241
1	1463	1242
1	1267	1243
1	1134	1244
1	1067	1245
1	1063	1246
1	1110	1247
1	1197	1248
1	1346	1249
1	1597	1250
1	1909	1251
1	2253	1252
1	2559	1253
1	2794	1254
1	2940	1255
1	2959	1256
1	2834	1257
1	2583	1258
1	2251	1259
1	1886	1280
1	1587	1281
1	1333	1282
1	1143	1283
1	1018	1284
1	953	1285
1	952	1286
1	1003	1287
1	1089	1288
1	1241	1289
1	1482	1290
1	1789	1291
1	2131	1292
1	2466	1293
1	2706	1294
1	2850	1295
1	2867	1296
1	2749	1297
1	2515	1298
1	2183	1299
1	1870	1300
1	1580	1301
1	1327	1302
1	1136	1303
1	1006	1304
1	934	1305
1	924	1306
1	965	1307
1	1050	1308
1	1189	1309
1	1438	1310
1	1755	1311
1	2105	1312
1	2430	1313
1	2665	1314
1	2810	1315
1	2836	1316
1	2727	1317
1	2499	1318
1	2167	1319
1	1913	1260
1	1613	1261
1	1351	1262
1	1150	1263
1	1013	1264
1	951	1265
1	953	1266
1	1017	1267
1	1116	1268
1	1271	1269
1	1516	1270
1	1832	1271
1	2175	1272
1	2505	1273
1	2744	1274
1	2893	1275
1	2921	1276
1	2798	1277
1	2543	1278
1	2205	1279
1	1846	1320
1	1542	1321
1	1286	1322
1	1089	1323
1	958	1324
1	904	1325
1	909	1326
1	962	1327
1	1071	1328
1	1227	1329
1	1476	1330
1	1777	1331
1	2109	1332
1	2430	1333
1	2658	1334
1	2798	1335
1	2811	1336
1	2697	1337
1	2459	1338
1	2114	1339
1	1780	1340
1	1485	1341
1	1228	1342
1	1021	1343
1	895	1344
1	836	1345
1	848	1346
1	918	1347
1	1040	1348
1	1225	1349
1	1499	1350
1	1844	1351
1	2230	1352
1	2591	1353
1	2892	1354
1	3110	1355
1	3130	1356
1	3111	1357
1	2893	1358
1	2603	1359
1	1980	1380
1	1631	1381
1	1317	1382
1	1067	1383
1	890	1384
1	801	1385
1	785	1386
1	824	1387
1	914	1388
1	1067	1389
1	1310	1390
1	1631	1391
1	1985	1392
1	2327	1393
1	2589	1394
1	2745	1395
1	2782	1396
1	2685	1397
1	2466	1398
1	2130	1399
1	2325	1360
1	2064	1361
1	1850	1362
1	1690	1363
1	1593	1364
1	1542	1365
1	1542	1366
1	1585	1367
1	1660	1368
1	1791	1369
1	2022	1370
1	2294	1371
1	2590	1372
1	2870	1373
1	3098	1374
1	3130	1375
1	3130	1376
1	3035	1377
1	2735	1378
1	2369	1379
1	1816	1400
1	1508	1401
1	1249	1402
1	1051	1403
1	918	1404
1	859	1405
1	865	1406
1	926	1407
1	1035	1408
1	1191	1409
1	1438	1410
1	1746	1411
1	2092	1412
1	2419	1413
1	2658	1414
1	2807	1415
1	2835	1416
1	2736	1417
1	2514	1418
1	2183	1419
1	1865	1420
1	1545	1421
1	1232	1422
1	1068	1423
1	914	1424
1	841	1425
1	837	1426
1	898	1427
1	1005	1428
1	1164	1429
1	1422	1430
1	1737	1431
1	2089	1432
1	2417	1433
1	2675	1434
1	2837	1435
1	2883	1436
1	2794	1437
1	2570	1438
1	2246	1439
1	1906	1440
1	1587	1441
1	1303	1442
1	1081	1443
1	927	1444
1	852	1445
1	854	1446
1	921	1447
1	1034	1448
1	1202	1449
1	1466	1450
1	1791	1451
1	2143	1452
1	2479	1453
1	2717	1454
1	2874	1455
1	2905	1456
1	2795	1457
1	2556	1458
1	2217	1459
1	1897	1460
1	1594	1461
1	1329	1462
1	1125	1463
1	980	1464
1	901	1465
1	900	1466
1	958	1467
1	1069	1468
1	1226	1469
1	1467	1470
1	1773	1471
1	2116	1472
1	2444	1473
1	2685	1474
1	2852	1475
1	2885	1476
1	2788	1477
1	2562	1478
1	2243	1479
1	1948	1500
1	1648	1501
1	1392	1502
1	1184	1503
1	1047	1504
1	983	1505
1	981	1506
1	1032	1507
1	1135	1508
1	1288	1509
1	1532	1510
1	1845	1511
1	2196	1512
1	2532	1513
1	2793	1514
1	2970	1515
1	3012	1516
1	2912	1517
1	2667	1518
1	2338	1519
1	1926	1480
1	1635	1481
1	1384	1482
1	1193	1483
1	1060	1484
1	999	1485
1	1005	1486
1	1068	1487
1	1176	1488
1	1332	1489
1	1581	1490
1	1888	1491
1	2221	1492
1	2532	1493
1	2767	1494
1	2921	1495
1	2946	1496
1	2836	1497
1	2602	1498
1	2279	1499
1	2004	1520
1	1680	1521
1	1351	1522
1	1200	1523
1	1058	1524
1	981	1525
1	973	1526
1	1006	1527
1	1091	1528
1	1229	1529
1	1461	1530
1	1762	1531
1	2106	1532
1	2450	1533
1	2721	1534
1	2914	1535
1	2984	1536
1	2923	1537
1	2724	1538
1	2435	1539
1	2118	1540
1	1828	1541
1	1562	1542
1	1350	1543
1	1209	1544
1	1128	1545
1	1112	1546
1	1157	1547
1	1245	1548
1	1398	1549
1	1641	1550
1	1953	1551
1	2314	1552
1	2644	1553
1	2915	1554
1	3098	1555
1	3130	1556
1	3063	1557
1	2834	1558
1	2523	1559
1	2191	1560
1	1895	1561
1	1625	1562
1	1411	1563
1	1256	1564
1	1186	1565
1	1184	1566
1	1243	1567
1	1358	1568
1	1520	1569
1	1765	1570
1	2090	1571
1	2456	1572
1	2764	1573
1	3018	1574
1	3130	1575
1	3130	1576
1	3095	1577
1	2850	1578
1	2532	1579
1	2215	1580
1	1929	1581
1	1667	1582
1	1458	1583
1	1306	1584
1	1225	1585
1	1214	1586
1	1256	1587
1	1345	1588
1	1489	1589
1	1715	1590
1	2014	1591
1	2358	1592
1	2665	1593
1	2926	1594
1	3096	1595
1	3130	1596
1	3020	1597
1	2768	1598
1	2438	1599
1	2086	1600
1	1769	1601
1	1494	1602
1	1276	1603
1	1129	1604
1	1052	1605
1	1044	1606
1	1091	1607
1	1187	1608
1	1328	1609
1	1567	1610
1	1871	1611
1	2210	1612
1	2540	1613
1	2799	1614
1	2975	1615
1	3019	1616
1	2924	1617
1	2687	1618
1	2364	1619
1	1857	1640
1	1546	1641
1	1271	1642
1	1063	1643
1	926	1644
1	865	1645
1	878	1646
1	941	1647
1	1049	1648
1	1191	1649
1	1428	1650
1	1728	1651
1	2079	1652
1	2419	1653
1	2672	1654
1	2839	1655
1	2865	1656
1	2757	1657
1	2527	1658
1	2185	1659
1	2014	1620
1	1689	1621
1	1422	1622
1	1202	1623
1	1055	1624
1	981	1625
1	960	1626
1	1006	1627
1	1092	1628
1	1230	1629
1	1458	1630
1	1757	1631
1	2096	1632
1	2425	1633
1	2668	1634
1	2825	1635
1	2858	1636
1	2758	1637
1	2527	1638
1	2192	1639
1	1855	1660
1	1547	1661
1	1273	1662
1	1058	1663
1	909	1664
1	835	1665
1	828	1666
1	874	1667
1	963	1668
1	1098	1669
1	1325	1670
1	1616	1671
1	1945	1672
1	2260	1673
1	2506	1674
1	2644	1675
1	2676	1676
1	2584	1677
1	2358	1678
1	2016	1679
1	1674	1680
1	1357	1681
1	1078	1682
1	854	1683
1	702	1684
1	627	1685
1	616	1686
1	666	1687
1	767	1688
1	917	1689
1	1161	1690
1	1476	1691
1	1826	1692
1	2143	1693
1	2407	1694
1	2563	1695
1	2608	1696
1	2530	1697
1	2309	1698
1	1975	1699
1	1646	1700
1	1332	1701
1	1058	1702
1	834	1703
1	687	1704
1	612	1705
1	602	1706
1	639	1707
1	713	1708
1	839	1709
1	1059	1710
1	1357	1711
1	1699	1712
1	2026	1713
1	2300	1714
1	2493	1715
1	2535	1716
1	2467	1717
1	2238	1718
1	1917	1719
1	1593	1720
1	1286	1721
1	979	1722
1	827	1723
1	686	1724
1	617	1725
1	610	1726
1	653	1727
1	738	1728
1	861	1729
1	1091	1730
1	1403	1731
1	1735	1732
1	2053	1733
1	2311	1734
1	2482	1735
1	2516	1736
1	2440	1737
1	2210	1738
1	1899	1739
1	1567	1740
1	1271	1741
1	1009	1742
1	800	1743
1	662	1744
1	592	1745
1	586	1746
1	633	1747
1	717	1748
1	863	1749
1	1094	1750
1	1398	1751
1	1741	1752
1	2071	1753
1	2344	1754
1	2523	1755
1	2578	1756
1	2511	1757
1	2289	1758
1	1963	1759
1	1636	1760
1	1330	1761
1	1055	1762
1	824	1763
1	669	1764
1	586	1765
1	569	1766
1	610	1767
1	691	1768
1	820	1769
1	1041	1770
1	1341	1771
1	1691	1772
1	2027	1773
1	2303	1774
1	2495	1775
1	2544	1776
1	2487	1777
1	2278	1778
1	1959	1779
1	1635	1780
1	1333	1781
1	1071	1782
1	853	1783
1	702	1784
1	612	1785
1	587	1786
1	618	1787
1	689	1788
1	796	1789
1	1005	1790
1	1293	1791
1	1634	1792
1	1955	1793
1	2215	1794
1	2404	1795
1	2467	1796
1	2397	1797
1	2188	1798
1	1882	1799
1	1557	1800
1	1261	1801
1	1001	1802
1	792	1803
1	655	1804
1	592	1805
1	590	1806
1	639	1807
1	731	1808
1	870	1809
1	1105	1810
1	1411	1811
1	1749	1812
1	2077	1813
1	2349	1814
1	2517	1815
1	2566	1816
1	2497	1817
1	2275	1818
1	1945	1819
1	1607	1820
1	1272	1821
1	936	1822
1	772	1823
1	612	1824
1	525	1825
1	507	1826
1	553	1827
1	640	1828
1	782	1829
1	1024	1830
1	1343	1831
1	1715	1832
1	2066	1833
1	2361	1834
1	2555	1835
1	2612	1836
1	2549	1837
1	2343	1838
1	2017	1839
1	1683	1840
1	1359	1841
1	1078	1842
1	848	1843
1	691	1844
1	608	1845
1	591	1846
1	634	1847
1	722	1848
1	862	1849
1	1104	1850
1	1402	1851
1	1749	1852
1	2086	1853
1	2368	1854
1	2554	1855
1	2611	1856
1	2547	1857
1	2342	1858
1	2023	1859
1	1688	1860
1	1390	1861
1	1117	1862
1	900	1863
1	747	1864
1	661	1865
1	630	1866
1	657	1867
1	733	1868
1	855	1869
1	1073	1870
1	1368	1871
1	1715	1872
1	2056	1873
1	2341	1874
1	2523	1875
1	2583	1876
1	2522	1877
1	2311	1878
1	1979	1879
1	1643	1880
1	1314	1881
1	1023	1882
1	795	1883
1	639	1884
1	564	1885
1	557	1886
1	599	1887
1	692	1888
1	833	1889
1	1060	1890
1	1358	1891
1	1707	1892
1	2040	1893
1	2320	1894
1	2515	1895
1	2563	1896
1	2496	1897
1	2287	1898
1	1961	1899
1	1625	1900
1	1297	1901
1	1005	1902
1	773	1903
1	612	1904
1	521	1905
1	498	1906
1	530	1907
1	609	1908
1	734	1909
1	958	1910
1	1266	1911
1	1623	1912
1	1974	1913
1	2271	1914
1	2484	1915
1	2549	1916
1	2503	1917
1	2300	1918
1	1982	1919
1	1645	1920
1	1319	1921
1	1029	1922
1	798	1923
1	639	1924
1	554	1925
1	530	1926
1	575	1927
1	654	1928
1	783	1929
1	1023	1930
1	1314	1931
1	1672	1932
1	2012	1933
1	2293	1934
1	2492	1935
1	2540	1936
1	2480	1937
1	2261	1938
1	1926	1939
1	1585	1940
1	1279	1941
1	1011	1942
1	796	1943
1	643	1944
1	560	1945
1	534	1946
1	569	1947
1	648	1948
1	772	1949
1	996	1950
1	1294	1951
1	1656	1952
1	1999	1953
1	2286	1954
1	2488	1955
1	2558	1956
1	2506	1957
1	2296	1958
1	1967	1959
1	2106	1980
1	1842	1981
1	1600	1982
1	1411	1983
1	1269	1984
1	1212	1985
1	1215	1986
1	1279	1987
1	1384	1988
1	1527	1989
1	1742	1990
1	2032	1991
1	2371	1992
1	2677	1993
1	2924	1994
1	3084	1995
1	3105	1996
1	2990	1997
1	2732	1998
1	2371	1999
1	1621	1960
1	1286	1961
1	985	1962
1	749	1963
1	585	1964
1	477	1965
1	447	1966
1	484	1967
1	582	1968
1	726	1969
1	990	1970
1	1330	1971
1	1733	1972
1	2121	1973
1	2473	1974
1	2699	1975
1	2816	1976
1	2810	1977
1	2663	1978
1	2402	1979
1	1993	2000
1	1625	2001
1	1287	2002
1	1016	2003
1	815	2004
1	701	2005
1	661	2006
1	690	2007
1	775	2008
1	909	2009
1	1135	2010
1	1428	2011
1	1764	2012
1	2091	2013
1	2369	2014
1	2558	2015
1	2619	2016
1	2558	2017
1	2358	2018
1	2026	2019
1	1723	2040
1	1422	2041
1	1140	2042
1	909	2043
1	743	2044
1	653	2045
1	621	2046
1	639	2047
1	702	2048
1	809	2049
1	1010	2050
1	1292	2051
1	1638	2052
1	1985	2053
1	2285	2054
1	2500	2055
1	2583	2056
1	2550	2057
1	2377	2058
1	2061	2059
1	1683	2020
1	1344	2021
1	996	2022
1	831	2023
1	665	2024
1	573	2025
1	540	2026
1	574	2027
1	653	2028
1	783	2029
1	1018	2030
1	1328	2031
1	1692	2032
1	2043	2033
1	2349	2034
1	2545	2035
1	2617	2036
1	2565	2037
1	2377	2038
1	2055	2039
1	1744	2060
1	1437	2061
1	1157	2062
1	927	2063
1	769	2064
1	685	2065
1	665	2066
1	697	2067
1	780	2068
1	911	2069
1	1134	2070
1	1436	2071
1	1779	2072
1	2115	2073
1	2402	2074
1	2585	2075
1	2649	2076
1	2592	2077
1	2404	2078
1	2080	2079
1	1767	2100
1	1459	2101
1	1175	2102
1	953	2103
1	796	2104
1	717	2105
1	704	2106
1	752	2107
1	849	2108
1	990	2109
1	1210	2110
1	1502	2111
1	1845	2112
1	2179	2113
1	2472	2114
1	2653	2115
1	2722	2116
1	2665	2117
1	2485	2118
1	2158	2119
1	1750	2080
1	1438	2081
1	1160	2082
1	928	2083
1	769	2084
1	677	2085
1	656	2086
1	696	2087
1	786	2088
1	914	2089
1	1132	2090
1	1423	2091
1	1760	2092
1	2103	2093
1	2404	2094
1	2600	2095
1	2669	2096
1	2611	2097
1	2426	2098
1	2106	2099
1	1844	2120
1	1516	2121
1	1175	2122
1	1019	2123
1	853	2124
1	760	2125
1	736	2126
1	766	2127
1	843	2128
1	965	2129
1	1191	2130
1	1490	2131
1	1847	2132
1	2193	2133
1	2498	2134
1	2695	2135
1	2769	2136
1	2725	2137
1	2550	2138
1	2255	2139
1	1925	2140
1	1607	2141
1	1319	2142
1	1081	2143
1	902	2144
1	796	2145
1	764	2146
1	790	2147
1	869	2148
1	1004	2149
1	1233	2150
1	1540	2151
1	1906	2152
1	2273	2153
1	2580	2154
1	2801	2155
1	2896	2156
1	2865	2157
1	2696	2158
1	2413	2159
1	2070	2160
1	1756	2161
1	1464	2162
1	1211	2163
1	1017	2164
1	899	2165
1	851	2166
1	874	2167
1	957	2168
1	1088	2169
1	1305	2170
1	1616	2171
1	1980	2172
1	2351	2173
1	2661	2174
1	2888	2175
1	3000	2176
1	2980	2177
1	2810	2178
1	2520	2179
1	2206	2180
1	1898	2181
1	1621	2182
1	1399	2183
1	1236	2184
1	1142	2185
1	1112	2186
1	1136	2187
1	1200	2188
1	1300	2189
1	1490	2190
1	1760	2191
1	2104	2192
1	2461	2193
1	2748	2194
1	2960	2195
1	3052	2196
1	3006	2197
1	2820	2198
1	2525	2199
1	2184	2200
1	1872	2201
1	1586	2202
1	1354	2203
1	1200	2204
1	1118	2205
1	1107	2206
1	1153	2207
1	1242	2208
1	1377	2209
1	1593	2210
1	1870	2211
1	2192	2212
1	2515	2213
1	2773	2214
1	2968	2215
1	3046	2216
1	2984	2217
1	2782	2218
1	2480	2219
1	2107	2220
1	1764	2221
1	1463	2222
1	1228	2223
1	1046	2224
1	936	2225
1	889	2226
1	905	2227
1	981	2228
1	1095	2229
1	1312	2230
1	1584	2231
1	1934	2232
1	2288	2233
1	2588	2234
1	2810	2235
1	2915	2236
1	2874	2237
1	2681	2238
1	2367	2239
1	2000	2240
1	1668	2241
1	1359	2242
1	1119	2243
1	942	2244
1	847	2245
1	820	2246
1	849	2247
1	934	2248
1	1063	2249
1	1267	2250
1	1553	2251
1	1897	2252
1	2242	2253
1	2527	2254
1	2724	2255
1	2801	2256
1	2761	2257
1	2585	2258
1	2291	2259
1	1949	2260
1	1622	2261
1	1321	2262
1	1080	2263
1	900	2264
1	796	2265
1	764	2266
1	794	2267
1	869	2268
1	996	2269
1	1206	2270
1	1491	2271
1	1836	2272
1	2171	2273
1	2471	2274
1	2666	2275
1	2754	2276
1	2714	2277
1	2536	2278
1	2232	2279
1	1894	2280
1	1589	2281
1	1309	2282
1	1076	2283
1	891	2284
1	789	2285
1	749	2286
1	765	2287
1	830	2288
1	936	2289
1	1135	2290
1	1418	2291
1	1753	2292
1	2099	2293
1	2403	2294
1	2606	2295
1	2707	2296
1	2692	2297
1	2535	2298
1	2236	2299
1	1917	2300
1	1595	2301
1	1297	2302
1	1058	2303
1	878	2304
1	769	2305
1	726	2306
1	742	2307
1	810	2308
1	922	2309
1	1128	2310
1	1422	2311
1	1773	2312
1	2125	2313
1	2441	2314
1	2647	2315
1	2744	2316
1	2715	2317
1	2553	2318
1	2262	2319
1	1923	2320
1	1587	2321
1	1301	2322
1	1059	2323
1	874	2324
1	766	2325
1	720	2326
1	738	2327
1	804	2328
1	924	2329
1	1137	2330
1	1432	2331
1	1770	2332
1	2109	2333
1	2427	2334
1	2640	2335
1	2742	2336
1	2721	2337
1	2558	2338
1	2251	2339
1	1894	2340
1	1561	2341
1	1265	2342
1	1027	2343
1	841	2344
1	742	2345
1	709	2346
1	742	2347
1	830	2348
1	963	2349
1	1170	2350
1	1452	2351
1	1788	2352
1	2127	2353
1	2432	2354
1	2632	2355
1	2722	2356
1	2692	2357
1	2533	2358
1	2237	2359
1	1922	2360
1	1607	2361
1	1317	2362
1	1076	2363
1	891	2364
1	783	2365
1	749	2366
1	778	2367
1	852	2368
1	975	2369
1	1167	2370
1	1441	2371
1	1773	2372
1	2107	2373
1	2418	2374
1	2623	2375
1	2716	2376
1	2687	2377
1	2526	2378
1	2233	2379
1	1893	2380
1	1568	2381
1	1273	2382
1	1031	2383
1	855	2384
1	750	2385
1	715	2386
1	740	2387
1	817	2388
1	944	2389
1	1161	2390
1	1459	2391
1	1817	2392
1	2172	2393
1	2496	2394
1	2706	2395
1	2807	2396
1	2777	2397
1	2607	2398
1	2314	2399
1	1963	2400
1	1634	2401
1	1331	2402
1	1079	2403
1	877	2404
1	767	2405
1	716	2406
1	733	2407
1	807	2408
1	924	2409
1	1125	2410
1	1410	2411
1	1755	2412
1	2109	2413
1	2431	2414
1	2644	2415
1	2749	2416
1	2727	2417
1	2572	2418
1	2277	2419
1	1953	2420
1	1613	2421
1	1314	2422
1	1058	2423
1	857	2424
1	731	2425
1	675	2426
1	681	2427
1	743	2428
1	848	2429
1	1052	2430
1	1350	2431
1	1726	2432
1	2088	2433
1	2426	2434
1	2662	2435
1	2781	2436
1	2753	2437
1	2585	2438
1	2303	2439
1	1956	2440
1	1630	2441
1	1328	2442
1	1075	2443
1	873	2444
1	747	2445
1	697	2446
1	705	2447
1	769	2448
1	882	2449
1	1080	2450
1	1350	2451
1	1694	2452
1	2051	2453
1	2369	2454
1	2595	2455
1	2704	2456
1	2685	2457
1	2539	2458
1	2262	2459
1	1924	2460
1	1609	2461
1	1316	2462
1	1067	2463
1	871	2464
1	760	2465
1	715	2466
1	729	2467
1	801	2468
1	922	2469
1	1122	2470
1	1402	2471
1	1738	2472
1	2087	2473
1	2399	2474
1	2609	2475
1	2722	2476
1	2707	2477
1	2557	2478
1	2258	2479
1	1924	2480
1	1607	2481
1	1314	2482
1	1071	2483
1	880	2484
1	760	2485
1	708	2486
1	719	2487
1	790	2488
1	900	2489
1	1089	2490
1	1360	2491
1	1700	2492
1	2043	2493
1	2365	2494
1	2581	2495
1	2685	2496
1	2664	2497
1	2516	2498
1	2220	2499
1	1873	2500
1	1544	2501
1	1250	2502
1	1021	2503
1	848	2504
1	739	2505
1	692	2506
1	717	2507
1	795	2508
1	919	2509
1	1122	2510
1	1414	2511
1	1764	2512
1	2120	2513
1	2443	2514
1	2664	2515
1	2777	2516
1	2766	2517
1	2617	2518
1	2329	2519
1	1972	2520
1	1634	2521
1	1332	2522
1	1079	2523
1	872	2524
1	756	2525
1	706	2526
1	727	2527
1	813	2528
1	941	2529
1	1140	2530
1	1426	2531
1	1760	2532
1	2108	2533
1	2422	2534
1	2644	2535
1	2764	2536
1	2756	2537
1	2609	2538
1	2340	2539
1	1995	2540
1	1681	2541
1	1363	2542
1	1116	2543
1	918	2544
1	795	2545
1	741	2546
1	751	2547
1	816	2548
1	922	2549
1	1097	2550
1	1354	2551
1	1686	2552
1	2027	2553
1	2342	2554
1	2570	2555
1	2685	2556
1	2683	2557
1	2542	2558
1	2267	2559
1	2027	2580
1	1712	2581
1	1415	2582
1	1162	2583
1	956	2584
1	834	2585
1	788	2586
1	810	2587
1	886	2588
1	1004	2589
1	1188	2590
1	1467	2591
1	1802	2592
1	2145	2593
1	2458	2594
1	2660	2595
1	2762	2596
1	2737	2597
1	2571	2598
1	2273	2599
1	1935	2560
1	1625	2561
1	1341	2562
1	1099	2563
1	916	2564
1	803	2565
1	765	2566
1	787	2567
1	859	2568
1	980	2569
1	1166	2570
1	1445	2571
1	1779	2572
1	2130	2573
1	2451	2574
1	2673	2575
1	2791	2576
1	2787	2577
1	2646	2578
1	2376	2579
1	1944	2600
1	1616	2601
1	1319	2602
1	1070	2603
1	891	2604
1	788	2605
1	754	2606
1	778	2607
1	854	2608
1	979	2609
1	1162	2610
1	1438	2611
1	1777	2612
1	2122	2613
1	2443	2614
1	2651	2615
1	2753	2616
1	2738	2617
1	2587	2618
1	2305	2619
1	1952	2620
1	1607	2621
1	1307	2622
1	1052	2623
1	848	2624
1	733	2625
1	687	2626
1	695	2627
1	754	2628
1	860	2629
1	1063	2630
1	1348	2631
1	1699	2632
1	2053	2633
1	2379	2634
1	2612	2635
1	2740	2636
1	2740	2637
1	2600	2638
1	2325	2639
1	1969	2640
1	1639	2641
1	1331	2642
1	1076	2643
1	875	2644
1	742	2645
1	697	2646
1	712	2647
1	783	2648
1	900	2649
1	1085	2650
1	1359	2651
1	1696	2652
1	2042	2653
1	2354	2654
1	2571	2655
1	2685	2656
1	2674	2657
1	2530	2658
1	2241	2659
1	1913	2660
1	1596	2661
1	1305	2662
1	1071	2663
1	899	2664
1	794	2665
1	751	2666
1	769	2667
1	835	2668
1	938	2669
1	1111	2670
1	1364	2671
1	1690	2672
1	2019	2673
1	2322	2674
1	2530	2675
1	2628	2676
1	2605	2677
1	2474	2678
1	2185	2679
1	1850	2680
1	1526	2681
1	1227	2682
1	981	2683
1	811	2684
1	726	2685
1	721	2686
1	792	2687
1	914	2688
1	1089	2689
1	1324	2690
1	1650	2691
1	2031	2692
1	2437	2693
1	2777	2694
1	3063	2695
1	3130	2696
1	3130	2697
1	3130	2698
1	2952	2699
1	2652	2700
1	2372	2701
1	2095	2702
1	1869	2703
1	1678	2704
1	1561	2705
1	1490	2706
1	1468	2707
1	1485	2708
1	1532	2709
1	1646	2710
1	1856	2711
1	2131	2712
1	2440	2713
1	2685	2714
1	2856	2715
1	2930	2716
1	2877	2717
1	2698	2718
1	2394	2719
1	2045	2720
1	1674	2721
1	1346	2722
1	1073	2723
1	848	2724
1	707	2725
1	647	2726
1	657	2727
1	730	2728
1	841	2729
1	1031	2730
1	1310	2731
1	1665	2732
1	2004	2733
1	2335	2734
1	2579	2735
1	2706	2736
1	2697	2737
1	2556	2738
1	2276	2739
1	1934	2740
1	1608	2741
1	1301	2742
1	1037	2743
1	837	2744
1	719	2745
1	682	2746
1	710	2747
1	785	2748
1	912	2749
1	1098	2750
1	1358	2751
1	1686	2752
1	2026	2753
1	2341	2754
1	2570	2755
1	2685	2756
1	2675	2757
1	2535	2758
1	2258	2759
1	1896	2760
1	1563	2761
1	1242	2762
1	981	2763
1	777	2764
1	669	2765
1	636	2766
1	662	2767
1	739	2768
1	851	2769
1	1041	2770
1	1325	2771
1	1673	2772
1	2029	2773
1	2348	2774
1	2570	2775
1	2685	2776
1	2677	2777
1	2543	2778
1	2262	2779
1	1946	2780
1	1617	2781
1	1318	2782
1	1062	2783
1	863	2784
1	732	2785
1	677	2786
1	682	2787
1	743	2788
1	851	2789
1	1029	2790
1	1285	2791
1	1625	2792
1	1976	2793
1	2318	2794
1	2561	2795
1	2698	2796
1	2707	2797
1	2587	2798
1	2338	2799
1	2000	2800
1	1670	2801
1	1359	2802
1	1091	2803
1	880	2804
1	743	2805
1	679	2806
1	680	2807
1	730	2808
1	833	2809
1	1007	2810
1	1279	2811
1	1624	2812
1	1987	2813
1	2320	2814
1	2568	2815
1	2708	2816
1	2729	2817
1	2609	2818
1	2358	2819
1	2004	2820
1	1654	2821
1	1332	2822
1	1071	2823
1	856	2824
1	720	2825
1	665	2826
1	678	2827
1	744	2828
1	859	2829
1	1054	2830
1	1323	2831
1	1660	2832
1	2022	2833
1	2355	2834
1	2601	2835
1	2743	2836
1	2743	2837
1	2611	2838
1	2346	2839
1	1997	2840
1	1664	2841
1	1354	2842
1	1096	2843
1	893	2844
1	762	2845
1	708	2846
1	721	2847
1	793	2848
1	906	2849
1	1084	2850
1	1346	2851
1	1690	2852
1	2039	2853
1	2385	2854
1	2624	2855
1	2764	2856
1	2783	2857
1	2671	2858
1	2433	2859
1	2095	2880
1	1764	2881
1	1467	2882
1	1215	2883
1	1020	2884
1	908	2885
1	860	2886
1	875	2887
1	950	2888
1	1065	2889
1	1241	2890
1	1505	2891
1	1844	2892
1	2206	2893
1	2545	2894
1	2803	2895
1	2970	2896
1	2997	2897
1	2879	2898
1	2606	2899
1	2091	2860
1	1766	2861
1	1467	2862
1	1201	2863
1	992	2864
1	849	2865
1	787	2866
1	793	2867
1	852	2868
1	965	2869
1	1138	2870
1	1405	2871
1	1736	2872
1	2092	2873
1	2423	2874
1	2661	2875
1	2804	2876
1	2824	2877
1	2702	2878
1	2453	2879
1	2300	2900
1	1974	2901
1	1682	2902
1	1430	2903
1	1229	2904
1	1097	2905
1	1036	2906
1	1040	2907
1	1084	2908
1	1166	2909
1	1307	2910
1	1545	2911
1	1861	2912
1	2197	2913
1	2535	2914
1	2782	2915
1	2943	2916
1	2968	2917
1	2853	2918
1	2612	2919
1	2296	2920
1	1962	2921
1	1672	2922
1	1415	2923
1	1211	2924
1	1076	2925
1	1021	2926
1	1024	2927
1	1073	2928
1	1166	2929
1	1336	2930
1	1583	2931
1	1888	2932
1	2209	2933
1	2524	2934
1	2760	2935
1	2898	2936
1	2903	2937
1	2777	2938
1	2523	2939
1	2182	2940
1	1855	2941
1	1538	2942
1	1267	2943
1	1052	2944
1	914	2945
1	845	2946
1	836	2947
1	882	2948
1	978	2949
1	1132	2950
1	1377	2951
1	1700	2952
1	2050	2953
1	2371	2954
1	2600	2955
1	2725	2956
1	2734	2957
1	2619	2958
1	2356	2959
1	2042	2960
1	1720	2961
1	1427	2962
1	1173	2963
1	977	2964
1	834	2965
1	764	2966
1	756	2967
1	811	2968
1	908	2969
1	1068	2970
1	1319	2971
1	1648	2972
1	1998	2973
1	2340	2974
1	2583	2975
1	2727	2976
1	2747	2977
1	2635	2978
1	2391	2979
1	2044	2980
1	1711	2981
1	1398	2982
1	1122	2983
1	903	2984
1	754	2985
1	678	2986
1	669	2987
1	717	2988
1	823	2989
1	989	2990
1	1242	2991
1	1572	2992
1	1922	2993
1	2256	2994
1	2515	2995
1	2662	2996
1	2683	2997
1	2573	2998
1	2331	2999
1	1993	3000
1	1675	3001
1	1375	3002
1	1119	3003
1	906	3004
1	784	3005
1	724	3006
1	726	3007
1	778	3008
1	874	3009
1	1031	3010
1	1278	3011
1	1590	3012
1	1931	3013
1	2255	3014
1	2509	3015
1	2653	3016
1	2683	3017
1	2579	3018
1	2330	3019
1	1983	3060
1	1656	3061
1	1350	3062
1	1094	3063
1	890	3064
1	769	3065
1	710	3066
1	711	3067
1	765	3068
1	871	3069
1	1035	3070
1	1293	3071
1	1622	3072
1	1976	3073
1	2304	3074
1	2545	3075
1	2688	3076
1	2705	3077
1	2589	3078
1	2333	3079
1	1995	3040
1	1682	3041
1	1379	3042
1	1112	3043
1	902	3044
1	765	3045
1	697	3046
1	698	3047
1	756	3048
1	864	3049
1	1029	3050
1	1272	3051
1	1593	3052
1	1944	3053
1	2266	3054
1	2516	3055
1	2655	3056
1	2678	3057
1	2575	3058
1	2333	3059
1	2014	3020
1	1670	3021
1	1369	3022
1	1101	3023
1	887	3024
1	743	3025
1	665	3026
1	660	3027
1	715	3028
1	814	3029
1	981	3030
1	1233	3031
1	1555	3032
1	1888	3033
1	2210	3034
1	2472	3035
1	2620	3036
1	2646	3037
1	2550	3038
1	2318	3039
1	2013	3080
1	1684	3081
1	1372	3082
1	1107	3083
1	900	3084
1	770	3085
1	715	3086
1	718	3087
1	782	3088
1	890	3089
1	1053	3090
1	1305	3091
1	1633	3092
1	1974	3093
1	2314	3094
1	2560	3095
1	2709	3096
1	2731	3097
1	2627	3098
1	2390	3099
1	2045	3100
1	1708	3101
1	1401	3102
1	1124	3103
1	900	3104
1	749	3105
1	678	3106
1	673	3107
1	723	3108
1	827	3109
1	991	3110
1	1240	3111
1	1562	3112
1	1922	3113
1	2255	3114
1	2519	3115
1	2685	3116
1	2727	3117
1	2642	3118
1	2418	3119
1	2066	3120
1	1713	3121
1	1409	3122
1	1142	3123
1	931	3124
1	796	3125
1	726	3126
1	723	3127
1	782	3128
1	879	3129
1	1045	3130
1	1294	3131
1	1611	3132
1	1962	3133
1	2295	3134
1	2564	3135
1	2734	3136
1	2779	3137
1	2685	3138
1	2458	3139
1	2105	3140
1	1773	3141
1	1463	3142
1	1196	3143
1	990	3144
1	848	3145
1	777	3146
1	766	3147
1	804	3148
1	893	3149
1	1037	3150
1	1273	3151
1	1582	3152
1	1926	3153
1	2263	3154
1	2523	3155
1	2672	3156
1	2703	3157
1	2603	3158
1	2376	3159
1	2037	3160
1	1710	3161
1	1404	3162
1	1136	3163
1	926	3164
1	786	3165
1	716	3166
1	709	3167
1	760	3168
1	863	3169
1	1019	3170
1	1269	3171
1	1601	3172
1	1959	3173
1	2292	3174
1	2550	3175
1	2700	3176
1	2735	3177
1	2647	3178
1	2432	3179
1	2134	3200
1	1814	3201
1	1495	3202
1	1215	3203
1	997	3204
1	835	3205
1	749	3206
1	729	3207
1	769	3208
1	861	3209
1	1004	3210
1	1240	3211
1	1555	3212
1	1899	3213
1	2236	3214
1	2506	3215
1	2661	3216
1	2706	3217
1	2629	3218
1	2419	3219
1	2083	3180
1	1751	3181
1	1443	3182
1	1166	3183
1	944	3184
1	805	3185
1	729	3186
1	717	3187
1	760	3188
1	850	3189
1	1005	3190
1	1251	3191
1	1574	3192
1	1926	3193
1	2263	3194
1	2525	3195
1	2694	3196
1	2741	3197
1	2663	3198
1	2448	3199
1	2088	3220
1	1750	3221
1	1451	3222
1	1187	3223
1	973	3224
1	822	3225
1	749	3226
1	738	3227
1	772	3228
1	860	3229
1	1011	3230
1	1238	3231
1	1548	3232
1	1892	3233
1	2233	3234
1	2501	3235
1	2664	3236
1	2720	3237
1	2646	3238
1	2439	3239
1	2097	3240
1	1776	3241
1	1476	3242
1	1194	3243
1	972	3244
1	810	3245
1	726	3246
1	715	3247
1	749	3248
1	834	3249
1	979	3250
1	1215	3251
1	1529	3252
1	1880	3253
1	2220	3254
1	2497	3255
1	2671	3256
1	2725	3257
1	2649	3258
1	2432	3259
1	2116	3260
1	1799	3261
1	1497	3262
1	1215	3263
1	997	3264
1	843	3265
1	762	3266
1	751	3267
1	801	3268
1	900	3269
1	1044	3270
1	1279	3271
1	1590	3272
1	1944	3273
1	2291	3274
1	2561	3275
1	2735	3276
1	2784	3277
1	2710	3278
1	2511	3279
1	2142	3300
1	1815	3301
1	1503	3302
1	1227	3303
1	1005	3304
1	853	3305
1	768	3306
1	743	3307
1	782	3308
1	869	3309
1	1011	3310
1	1249	3311
1	1571	3312
1	1935	3313
1	2288	3314
1	2563	3315
1	2743	3316
1	2793	3317
1	2714	3318
1	2500	3319
1	2178	3280
1	1845	3281
1	1526	3282
1	1236	3283
1	1010	3284
1	846	3285
1	764	3286
1	746	3287
1	788	3288
1	884	3289
1	1031	3290
1	1267	3291
1	1582	3292
1	1935	3293
1	2274	3294
1	2538	3295
1	2711	3296
1	2761	3297
1	2683	3298
1	2480	3299
1	2175	3320
1	1819	3321
1	1497	3322
1	1209	3323
1	980	3324
1	817	3325
1	732	3326
1	714	3327
1	754	3328
1	846	3329
1	1001	3330
1	1241	3331
1	1579	3332
1	1953	3333
1	2325	3334
1	2623	3335
1	2811	3336
1	2872	3337
1	2790	3338
1	2585	3339
1	2262	3340
1	1922	3341
1	1610	3342
1	1324	3343
1	1089	3344
1	910	3345
1	815	3346
1	790	3347
1	821	3348
1	901	3349
1	1040	3350
1	1262	3351
1	1565	3352
1	1917	3353
1	2264	3354
1	2547	3355
1	2733	3356
1	2799	3357
1	2737	3358
1	2536	3359
1	2212	3360
1	1895	3361
1	1587	3362
1	1310	3363
1	1084	3364
1	934	3365
1	848	3366
1	833	3367
1	874	3368
1	965	3369
1	1106	3370
1	1330	3371
1	1626	3372
1	1967	3373
1	2297	3374
1	2555	3375
1	2725	3376
1	2771	3377
1	2681	3378
1	2449	3379
1	2143	3380
1	1817	3381
1	1505	3382
1	1229	3383
1	1006	3384
1	846	3385
1	756	3386
1	733	3387
1	775	3388
1	871	3389
1	1011	3390
1	1240	3391
1	1541	3392
1	1884	3393
1	2215	3394
1	2493	3395
1	2655	3396
1	2706	3397
1	2637	3398
1	2436	3399
1	2111	3400
1	1787	3401
1	1481	3402
1	1206	3403
1	993	3404
1	839	3405
1	767	3406
1	761	3407
1	819	3408
1	922	3409
1	1072	3410
1	1305	3411
1	1607	3412
1	1944	3413
1	2271	3414
1	2533	3415
1	2703	3416
1	2755	3417
1	2684	3418
1	2485	3419
1	2076	3440
1	1755	3441
1	1450	3442
1	1188	3443
1	971	3444
1	806	3445
1	709	3446
1	674	3447
1	693	3448
1	769	3449
1	897	3450
1	1136	3451
1	1475	3452
1	1861	3453
1	2249	3454
1	2577	3455
1	2798	3456
1	2907	3457
1	2899	3458
1	2754	3459
1	2142	3420
1	1796	3421
1	1491	3422
1	1220	3423
1	1004	3424
1	851	3425
1	775	3426
1	764	3427
1	797	3428
1	890	3429
1	1022	3430
1	1242	3431
1	1544	3432
1	1890	3433
1	2219	3434
1	2485	3435
1	2643	3436
1	2690	3437
1	2620	3438
1	2416	3439
1	2508	3460
1	2221	3461
1	1959	3462
1	1723	3463
1	1548	3464
1	1423	3465
1	1366	3466
1	1375	3467
1	1448	3468
1	1561	3469
1	1703	3470
1	1924	3471
1	2209	3472
1	2535	3473
1	2836	3474
1	3098	3475
1	3130	3476
1	3130	3477
1	3130	3478
1	2903	3479
1	2557	3480
1	2189	3481
1	1847	3482
1	1529	3483
1	1262	3484
1	1066	3485
1	936	3486
1	878	3487
1	891	3488
1	958	3489
1	1084	3490
1	1305	3491
1	1603	3492
1	1937	3493
1	2265	3494
1	2522	3495
1	2686	3496
1	2736	3497
1	2665	3498
1	2485	3499
1	2159	3500
1	1854	3501
1	1548	3502
1	1267	3503
1	1036	3504
1	869	3505
1	771	3506
1	743	3507
1	769	3508
1	841	3509
1	954	3510
1	1164	3511
1	1456	3512
1	1790	3513
1	2124	3514
1	2408	3515
1	2587	3516
1	2647	3517
1	2588	3518
1	2394	3519
1	2070	3520
1	1725	3521
1	1432	3522
1	1155	3523
1	936	3524
1	780	3525
1	692	3526
1	669	3527
1	704	3528
1	796	3529
1	950	3530
1	1184	3531
1	1503	3532
1	1870	3533
1	2222	3534
1	2513	3535
1	2688	3536
1	2752	3537
1	2692	3538
1	2502	3539
1	2160	3540
1	1827	3541
1	1503	3542
1	1214	3543
1	984	3544
1	816	3545
1	724	3546
1	700	3547
1	733	3548
1	819	3549
1	953	3550
1	1179	3551
1	1481	3552
1	1829	3553
1	2168	3554
1	2453	3555
1	2637	3556
1	2696	3557
1	2638	3558
1	2457	3559
1	2139	3560
1	1814	3561
1	1492	3562
1	1202	3563
1	973	3564
1	816	3565
1	742	3566
1	739	3567
1	792	3568
1	885	3569
1	1015	3570
1	1232	3571
1	1527	3572
1	1868	3573
1	2210	3574
1	2508	3575
1	2694	3576
1	2763	3577
1	2703	3578
1	2514	3579
1	2196	3580
1	1867	3581
1	1556	3582
1	1268	3583
1	1031	3584
1	849	3585
1	749	3586
1	721	3587
1	756	3588
1	841	3589
1	983	3590
1	1207	3591
1	1508	3592
1	1859	3593
1	2202	3594
1	2500	3595
1	2685	3596
1	2755	3597
1	2700	3598
1	2512	3599
1	2170	3600
1	1826	3601
1	1506	3602
1	1229	3603
1	1023	3604
1	875	3605
1	801	3606
1	785	3607
1	822	3608
1	914	3609
1	1044	3610
1	1261	3611
1	1555	3612
1	1895	3613
1	2236	3614
1	2515	3615
1	2706	3616
1	2786	3617
1	2745	3618
1	2577	3619
1	2284	3620
1	1945	3621
1	1639	3622
1	1359	3623
1	1070	3624
1	939	3625
1	837	3626
1	807	3627
1	846	3628
1	932	3629
1	1073	3630
1	1309	3631
1	1621	3632
1	1985	3633
1	2341	3634
1	2633	3635
1	2819	3636
1	2881	3637
1	2818	3638
1	2629	3639
1	2319	3640
1	1978	3641
1	1661	3642
1	1372	3643
1	1136	3644
1	958	3645
1	860	3646
1	829	3647
1	864	3648
1	963	3649
1	1099	3650
1	1319	3651
1	1629	3652
1	1988	3653
1	2346	3654
1	2644	3655
1	2855	3656
1	2946	3657
1	2894	3658
1	2705	3659
1	2395	3660
1	2061	3661
1	1759	3662
1	1485	3663
1	1265	3664
1	1101	3665
1	1014	3666
1	995	3667
1	1032	3668
1	1121	3669
1	1251	3670
1	1474	3671
1	1764	3672
1	2112	3673
1	2466	3674
1	2725	3675
1	2926	3676
1	3001	3677
1	2952	3678
1	2750	3679
1	2483	3680
1	2147	3681
1	1843	3682
1	1555	3683
1	1319	3684
1	1153	3685
1	1060	3686
1	1035	3687
1	1073	3688
1	1162	3689
1	1278	3690
1	1479	3691
1	1763	3692
1	2105	3693
1	2459	3694
1	2729	3695
1	2929	3696
1	2999	3697
1	2942	3698
1	2746	3699
1	2454	3700
1	2109	3701
1	1794	3702
1	1515	3703
1	1283	3704
1	1113	3705
1	1018	3706
1	978	3707
1	998	3708
1	1076	3709
1	1192	3710
1	1400	3711
1	1686	3712
1	2026	3713
1	2368	3714
1	2644	3715
1	2843	3716
1	2917	3717
1	2855	3718
1	2655	3719
1	2332	3720
1	1963	3721
1	1634	3722
1	1332	3723
1	1080	3724
1	905	3725
1	769	3726
1	728	3727
1	743	3728
1	817	3729
1	936	3730
1	1152	3731
1	1457	3732
1	1819	3733
1	2179	3734
1	2483	3735
1	2685	3736
1	2770	3737
1	2731	3738
1	2558	3739
1	2237	3740
1	1913	3741
1	1589	3742
1	1292	3743
1	1065	3744
1	897	3745
1	803	3746
1	778	3747
1	814	3748
1	896	3749
1	1009	3750
1	1206	3751
1	1487	3752
1	1827	3753
1	2172	3754
1	2480	3755
1	2677	3756
1	2771	3757
1	2735	3758
1	2558	3759
1	2248	3760
1	1907	3761
1	1583	3762
1	1283	3763
1	1053	3764
1	870	3765
1	757	3766
1	716	3767
1	742	3768
1	823	3769
1	941	3770
1	1162	3771
1	1458	3772
1	1800	3773
1	2143	3774
1	2445	3775
1	2644	3776
1	2729	3777
1	2689	3778
1	2516	3779
1	2199	3780
1	1868	3781
1	1530	3782
1	1245	3783
1	1008	3784
1	833	3785
1	731	3786
1	697	3787
1	728	3788
1	816	3789
1	945	3790
1	1166	3791
1	1472	3792
1	1832	3793
1	2185	3794
1	2488	3795
1	2677	3796
1	2760	3797
1	2717	3798
1	2537	3799
1	2237	3800
1	1893	3801
1	1565	3802
1	1268	3803
1	1031	3804
1	856	3805
1	751	3806
1	710	3807
1	738	3808
1	820	3809
1	940	3810
1	1154	3811
1	1449	3812
1	1796	3813
1	2150	3814
1	2456	3815
1	2651	3816
1	2734	3817
1	2692	3818
1	2520	3819
1	2215	3820
1	1873	3821
1	1579	3822
1	1291	3823
1	1057	3824
1	872	3825
1	761	3826
1	723	3827
1	738	3828
1	806	3829
1	927	3830
1	1136	3831
1	1436	3832
1	1791	3833
1	2148	3834
1	2466	3835
1	2669	3836
1	2757	3837
1	2719	3838
1	2540	3839
1	2222	3840
1	1890	3841
1	1571	3842
1	1283	3843
1	1060	3844
1	887	3845
1	785	3846
1	748	3847
1	783	3848
1	860	3849
1	975	3850
1	1164	3851
1	1442	3852
1	1778	3853
1	2130	3854
1	2442	3855
1	2649	3856
1	2746	3857
1	2722	3858
1	2559	3859
1	2264	3860
1	1924	3861
1	1605	3862
1	1312	3863
1	1080	3864
1	901	3865
1	799	3866
1	759	3867
1	772	3868
1	838	3869
1	941	3870
1	1138	3871
1	1422	3872
1	1754	3873
1	2103	3874
1	2417	3875
1	2628	3876
1	2729	3877
1	2710	3878
1	2558	3879
1	2274	3880
1	1940	3881
1	1633	3882
1	1346	3883
1	1115	3884
1	941	3885
1	837	3886
1	791	3887
1	796	3888
1	857	3889
1	974	3890
1	1174	3891
1	1459	3892
1	1803	3893
1	2147	3894
1	2447	3895
1	2644	3896
1	2735	3897
1	2704	3898
1	2535	3899
1	2222	3900
1	1895	3901
1	1577	3902
1	1288	3903
1	1058	3904
1	878	3905
1	774	3906
1	742	3907
1	765	3908
1	839	3909
1	951	3910
1	1158	3911
1	1450	3912
1	1796	3913
1	2152	3914
1	2447	3915
1	2651	3916
1	2738	3917
1	2696	3918
1	2520	3919
1	2212	3920
1	1855	3921
1	1526	3922
1	1224	3923
1	977	3924
1	796	3925
1	693	3926
1	668	3927
1	710	3928
1	796	3929
1	931	3930
1	1151	3931
1	1449	3932
1	1795	3933
1	2147	3934
1	2471	3935
1	2664	3936
1	2753	3937
1	2720	3938
1	2569	3939
1	2287	3940
1	1953	3941
1	1638	3942
1	1342	3943
1	1098	3944
1	910	3945
1	796	3946
1	749	3947
1	766	3948
1	833	3949
1	945	3950
1	1136	3951
1	1420	3952
1	1759	3953
1	2105	3954
1	2412	3955
1	2620	3956
1	2706	3957
1	2681	3958
1	2523	3959
1	2213	3960
1	1880	3961
1	1564	3962
1	1276	3963
1	1045	3964
1	870	3965
1	764	3966
1	730	3967
1	757	3968
1	837	3969
1	957	3970
1	1165	3971
1	1449	3972
1	1778	3973
1	2122	3974
1	2419	3975
1	2629	3976
1	2728	3977
1	2706	3978
1	2546	3979
1	2261	3980
1	1908	3981
1	1581	3982
1	1281	3983
1	1032	3984
1	848	3985
1	733	3986
1	691	3987
1	715	3988
1	796	3989
1	916	3990
1	1131	3991
1	1425	3992
1	1770	3993
1	2120	3994
1	2433	3995
1	2638	3996
1	2738	3997
1	2720	3998
1	2563	3999
1	2272	4000
1	1922	4001
1	1595	4002
1	1291	4003
1	1044	4004
1	850	4005
1	738	4006
1	699	4006
1	723	4008
1	802	4009
1	924	4010
1	1122	4011
1	1400	4012
1	1733	4013
1	2069	4014
1	2366	4014
1	2568	4016
1	2658	4017
1	2633	4018
1	2480	4019
1	2170	4040
1	1819	4041
1	1529	4042
1	1242	4043
1	1014	4044
1	841	4045
1	717	4046
1	686	4046
1	706	4048
1	789	4049
1	914	4050
1	1125	4051
1	1423	4052
1	1766	4053
1	2119	4054
1	2433	4054
1	2656	4056
1	2778	4057
1	2764	4058
1	2612	4059
1	2323	4040
1	1981	4041
1	1654	4042
1	1359	4043
1	1108	4044
1	917	4045
1	803	4046
1	759	4046
1	783	4048
1	859	4049
1	965	4050
1	1153	4051
1	1424	4052
1	1751	4053
1	2086	4054
1	2398	4054
1	2609	4056
1	2712	4057
1	2691	4058
1	2535	4059
1	2243	4060
1	1899	4061
1	1575	4062
1	1281	4062
1	1046	4064
1	870	4065
1	769	4066
1	734	4067
1	749	4068
1	819	4069
1	932	4070
1	1131	4070
1	1410	4072
1	1744	4073
1	2097	4074
1	2411	4075
1	2622	4076
1	2727	4077
1	2716	4078
1	2581	4078
1	2304	4080
1	1981	4081
1	1672	4082
1	1392	4083
1	1158	4084
1	981	4085
1	860	4086
1	810	4086
1	826	4088
1	903	4089
1	1030	4090
1	1220	4091
1	1488	4092
1	1803	4093
1	2138	4094
1	2430	4094
1	2636	4096
1	2740	4097
1	2724	4098
1	2579	4099
1	2309	4100
1	1974	4101
1	1658	4102
1	1364	4103
1	1112	4104
1	921	4105
1	800	4106
1	752	4107
1	762	4108
1	822	4109
1	918	4110
1	1107	4111
1	1379	4112
1	1715	4113
1	2066	4114
1	2379	4115
1	2593	4116
1	2699	4117
1	2681	4118
1	2532	4119
1	2247	4120
1	1888	4121
1	1566	4122
1	1267	4123
1	1021	4124
1	834	4125
1	730	4126
1	691	4127
1	709	4128
1	774	4129
1	875	4130
1	1053	4131
1	1335	4132
1	1667	4133
1	2013	4134
1	2314	4135
1	2535	4136
1	2646	4137
1	2642	4138
1	2509	4139
1	2228	4140
1	1900	4141
1	1586	4142
1	1291	4143
1	1035	4144
1	836	4145
1	706	4146
1	648	4147
1	653	4148
1	718	4149
1	833	4150
1	1029	4151
1	1309	4152
1	1660	4153
1	2016	4154
1	2327	4155
1	2551	4156
1	2664	4157
1	2655	4158
1	2519	4159
1	2249	4160
1	1914	4161
1	1598	4162
1	1307	4163
1	1067	4164
1	878	4165
1	761	4166
1	706	4167
1	717	4168
1	791	4169
1	896	4170
1	1076	4171
1	1340	4172
1	1669	4173
1	2011	4174
1	2317	4175
1	2524	4176
1	2612	4177
1	2581	4178
1	2413	4179
1	2109	4180
1	1759	4181
1	1448	4182
1	1157	4183
1	910	4184
1	741	4185
1	646	4186
1	635	4187
1	689	4188
1	799	4189
1	962	4190
1	1211	4191
1	1542	4192
1	1934	4193
1	2341	4194
1	2688	4195
1	2960	4196
1	3130	4197
1	3130	4198
1	3027	4199
1	2775	4200
1	2489	4201
1	2188	4202
1	1926	4203
1	1700	4204
1	1528	4205
1	1404	4206
1	1337	4207
1	1327	4208
1	1369	4209
1	1450	4210
1	1602	4211
1	1841	4212
1	2129	4213
1	2449	4214
1	2704	4215
1	2894	4216
1	2970	4217
1	2906	4218
1	2711	4219
1	2407	4220
1	2014	4221
1	1665	4222
1	1336	4223
1	1056	4224
1	851	4225
1	723	4226
1	674	4227
1	687	4228
1	743	4229
1	849	4230
1	1031	4231
1	1292	4232
1	1620	4233
1	1957	4234
1	2262	4235
1	2485	4236
1	2587	4237
1	2576	4238
1	2445	4239
1	2158	4240
1	1827	4241
1	1506	4242
1	1215	4243
1	970	4244
1	770	4245
1	653	4246
1	605	4247
1	618	4248
1	684	4249
1	796	4250
1	981	4251
1	1251	4252
1	1585	4253
1	1937	4254
1	2256	4255
1	2496	4256
1	2611	4257
1	2620	4258
1	2497	4259
1	2220	4260
1	1895	4261
1	1580	4262
1	1291	4263
1	1046	4264
1	858	4265
1	741	4266
1	692	4267
1	706	4268
1	775	4269
1	887	4270
1	1069	4271
1	1332	4272
1	1661	4273
1	2011	4274
1	2314	4275
1	2542	4276
1	2658	4277
1	2651	4278
1	2511	4279
1	2232	4280
1	1875	4281
1	1535	4282
1	1241	4283
1	987	4284
1	792	4285
1	670	4286
1	625	4287
1	639	4288
1	706	4289
1	811	4290
1	990	4291
1	1252	4292
1	1585	4293
1	1935	4294
1	2258	4295
1	2500	4296
1	2623	4297
1	2632	4298
1	2506	4299
1	2222	4300
1	1890	4301
1	1567	4302
1	1273	4303
1	1031	4304
1	848	4305
1	731	4306
1	691	4307
1	706	4308
1	774	4309
1	887	4310
1	1066	4311
1	1328	4312
1	1657	4313
1	2003	4314
1	2325	4315
1	2558	4316
1	2668	4317
1	2661	4318
1	2520	4319
1	2236	4320
1	1852	4321
1	1529	4322
1	1224	4323
1	972	4324
1	796	4325
1	679	4326
1	639	4327
1	657	4328
1	723	4329
1	828	4330
1	1009	4331
1	1284	4332
1	1629	4333
1	1989	4334
1	2314	4335
1	2558	4336
1	2692	4337
1	2703	4338
1	2579	4339
1	2318	4340
1	1987	4341
1	1661	4342
1	1363	4343
1	1107	4344
1	901	4345
1	769	4346
1	705	4347
1	706	4348
1	758	4349
1	847	4350
1	1013	4351
1	1265	4352
1	1590	4353
1	1939	4354
1	2279	4355
1	2521	4356
1	2664	4357
1	2681	4358
1	2557	4359
1	2311	4360
1	1978	4361
1	1671	4362
1	1381	4363
1	1126	4364
1	923	4365
1	792	4366
1	736	4367
1	743	4368
1	810	4369
1	927	4370
1	1110	4371
1	1376	4372
1	1712	4373
1	2066	4374
1	2394	4375
1	2624	4376
1	2763	4377
1	2772	4378
1	2642	4379
1	2371	4400
1	2034	4401
1	1715	4402
1	1424	4403
1	1170	4404
1	983	4405
1	860	4406
1	805	4407
1	815	4408
1	887	4409
1	1010	4410
1	1197	4411
1	1475	4412
1	1816	4413
1	2172	4414
1	2499	4415
1	2732	4416
1	2881	4417
1	2902	4418
1	2790	4419
1	2539	4400
1	2210	4401
1	1890	4402
1	1585	4403
1	1318	4404
1	1110	4405
1	977	4406
1	913	4407
1	913	4408
1	972	4409
1	1062	4410
1	1222	4411
1	1482	4412
1	1817	4413
1	2171	4414
1	2516	4415
1	2764	4416
1	2916	4417
1	2941	4418
1	2830	4419
1	2595	4420
1	2264	4421
1	1961	4422
1	1662	4423
1	1409	4424
1	1200	4425
1	1058	4426
1	981	4427
1	963	4428
1	1006	4429
1	1092	4430
1	1245	4431
1	1500	4432
1	1817	4433
1	2157	4434
1	2483	4435
1	2706	4436
1	2843	4437
1	2852	4438
1	2720	4439
1	2469	4440
1	2119	4441
1	1792	4442
1	1494	4443
1	1227	4444
1	1018	4445
1	866	4446
1	795	4447
1	787	4448
1	842	4449
1	941	4450
1	1110	4451
1	1363	4452
1	1686	4453
1	2034	4454
1	2349	4455
1	2581	4456
1	2717	4457
1	2727	4458
1	2603	4459
1	2345	4460
1	1992	4461
1	1657	4462
1	1348	4463
1	1094	4464
1	899	4465
1	772	4466
1	718	4467
1	723	4468
1	778	4469
1	867	4470
1	1016	4471
1	1255	4472
1	1571	4473
1	1918	4474
1	2245	4475
1	2497	4476
1	2634	4477
1	2652	4478
1	2536	4479
1	2288	4480
1	1946	4481
1	1620	4482
1	1308	4483
1	1044	4484
1	844	4485
1	716	4486
1	660	4487
1	665	4488
1	718	4489
1	819	4490
1	986	4491
1	1241	4492
1	1574	4493
1	1931	4494
1	2251	4495
1	2496	4496
1	2616	4497
1	2622	4498
1	2509	4499
1	2250	4500
1	1922	4501
1	1605	4502
1	1303	4503
1	1043	4504
1	843	4505
1	716	4506
1	657	4507
1	659	4508
1	720	4509
1	830	4510
1	1005	4511
1	1263	4512
1	1593	4513
1	1948	4514
1	2268	4515
1	2516	4516
1	2649	4517
1	2655	4518
1	2527	4519
1	2264	4520
1	1903	4521
1	1584	4522
1	1293	4523
1	1031	4524
1	848	4525
1	728	4526
1	672	4527
1	678	4528
1	725	4529
1	816	4530
1	977	4531
1	1227	4532
1	1546	4533
1	1890	4534
1	2209	4535
1	2464	4536
1	2604	4537
1	2629	4538
1	2527	4539
1	2282	4540
1	1948	4541
1	1623	4542
1	1319	4543
1	1056	4544
1	844	4545
1	713	4546
1	652	4547
1	649	4548
1	704	4549
1	818	4550
1	990	4551
1	1242	4552
1	1566	4553
1	1914	4554
1	2236	4555
1	2485	4556
1	2619	4557
1	2645	4558
1	2548	4559
1	2307	4560
1	1978	4561
1	1665	4562
1	1373	4563
1	1119	4564
1	915	4565
1	775	4566
1	706	4567
1	698	4568
1	747	4569
1	838	4570
1	996	4571
1	1242	4572
1	1564	4573
1	1910	4574
1	2217	4575
1	2464	4576
1	2592	4577
1	2605	4578
1	2501	4579
1	2264	4580
1	1937	4581
1	1615	4582
1	1320	4583
1	1062	4584
1	856	4585
1	719	4586
1	663	4587
1	666	4588
1	723	4589
1	820	4590
1	983	4591
1	1232	4592
1	1553	4593
1	1899	4594
1	2232	4595
1	2489	4596
1	2627	4597
1	2651	4598
1	2540	4599
1	2293	4600
1	1960	4601
1	1634	4602
1	1335	4603
1	1076	4604
1	867	4605
1	731	4606
1	670	4607
1	678	4608
1	743	4609
1	856	4610
1	1028	4611
1	1292	4612
1	1621	4613
1	1974	4614
1	2296	4615
1	2538	4616
1	2681	4617
1	2694	4618
1	2579	4619
1	2318	4620
1	1967	4621
1	1645	4622
1	1348	4623
1	1099	4624
1	905	4625
1	746	4626
1	702	4627
1	704	4628
1	765	4629
1	868	4630
1	1029	4631
1	1279	4632
1	1600	4633
1	1948	4634
1	2263	4635
1	2511	4636
1	2642	4637
1	2651	4638
1	2538	4639
1	2288	4640
1	1962	4641
1	1643	4642
1	1335	4643
1	1069	4644
1	855	4645
1	717	4646
1	656	4647
1	657	4648
1	713	4649
1	811	4650
1	972	4651
1	1215	4652
1	1535	4653
1	1886	4654
1	2214	4655
1	2485	4656
1	2638	4657
1	2673	4658
1	2577	4659
1	2339	4660
1	1998	4661
1	1662	4662
1	1352	4663
1	1088	4664
1	873	4665
1	729	4666
1	659	4667
1	657	4668
1	713	4669
1	811	4670
1	960	4671
1	1210	4672
1	1535	4673
1	1899	4674
1	2241	4675
1	2506	4676
1	2656	4677
1	2687	4678
1	2581	4679
1	2346	4680
1	2027	4681
1	1708	4682
1	1402	4683
1	1124	4684
1	906	4685
1	756	4686
1	688	4687
1	688	4688
1	743	4689
1	847	4690
1	1009	4691
1	1260	4692
1	1578	4693
1	1924	4694
1	2249	4695
1	2503	4696
1	2651	4697
1	2679	4698
1	2574	4699
1	2329	4700
1	2000	4701
1	1674	4702
1	1371	4703
1	1108	4704
1	900	4705
1	769	4706
1	703	4707
1	696	4708
1	743	4709
1	828	4710
1	980	4711
1	1229	4712
1	1554	4713
1	1914	4714
1	2260	4715
1	2522	4716
1	2673	4717
1	2698	4718
1	2588	4719
1	2345	4720
1	1993	4721
1	1675	4722
1	1364	4723
1	1102	4724
1	899	4725
1	769	4726
1	704	4727
1	695	4728
1	743	4729
1	836	4730
1	991	4731
1	1237	4732
1	1551	4733
1	1896	4734
1	2236	4735
1	2496	4736
1	2650	4737
1	2682	4738
1	2585	4739
1	2353	4740
1	2017	4741
1	1686	4742
1	1379	4743
1	1119	4744
1	927	4745
1	801	4746
1	752	4747
1	762	4748
1	823	4749
1	923	4750
1	1076	4751
1	1317	4752
1	1629	4753
1	1972	4754
1	2290	4755
1	2533	4756
1	2675	4757
1	2702	4758
1	2606	4759
1	2392	4760
1	2058	4761
1	1734	4762
1	1430	4763
1	1155	4764
1	940	4765
1	806	4766
1	744	4767
1	747	4768
1	805	4769
1	903	4770
1	1063	4771
1	1310	4772
1	1626	4773
1	1976	4774
1	2323	4775
1	2587	4776
1	2756	4777
1	2800	4778
1	2705	4779
1	2481	4780
1	2122	4781
1	1790	4782
1	1474	4783
1	1189	4784
1	972	4785
1	822	4786
1	748	4787
1	745	4788
1	797	4789
1	899	4790
1	1047	4791
1	1283	4792
1	1606	4793
1	1966	4794
1	2311	4795
1	2575	4796
1	2735	4797
1	2764	4798
1	2664	4799
1	2419	4800
1	2064	4801
1	1717	4802
1	1409	4803
1	1138	4804
1	929	4805
1	800	4806
1	735	4807
1	729	4808
1	780	4809
1	883	4810
1	1046	4811
1	1286	4812
1	1594	4813
1	1939	4814
1	2260	4815
1	2512	4816
1	2660	4817
1	2685	4818
1	2584	4819
1	2358	4820
1	2009	4821
1	1686	4822
1	1384	4823
1	1119	4824
1	913	4825
1	769	4826
1	699	4827
1	698	4828
1	747	4829
1	844	4830
1	990	4831
1	1220	4832
1	1524	4833
1	1867	4834
1	2191	4835
1	2458	4836
1	2605	4837
1	2633	4838
1	2538	4839
1	2304	4840
1	1974	4841
1	1651	4842
1	1348	4843
1	1085	4844
1	874	4845
1	742	4846
1	679	4847
1	685	4848
1	746	4849
1	860	4850
1	1022	4851
1	1268	4852
1	1584	4853
1	1945	4854
1	2279	4855
1	2542	4856
1	2706	4857
1	2744	4858
1	2651	4859
1	2418	4860
1	2073	4861
1	1730	4862
1	1408	4863
1	1114	4864
1	884	4865
1	730	4866
1	653	4867
1	639	4868
1	674	4869
1	747	4870
1	887	4871
1	1133	4872
1	1458	4873
1	1819	4874
1	2149	4875
1	2432	4876
1	2602	4877
1	2662	4878
1	2605	4879
1	2431	4880
1	2132	4881
1	1849	4882
1	1585	4883
1	1364	4884
1	1201	4885
1	1098	4886
1	1062	4887
1	1086	4888
1	1168	4889
1	1292	4890
1	1474	4891
1	1749	4892
1	2097	4893
1	2493	4894
1	2841	4895
1	3130	4896
1	3130	4897
1	3130	4898
1	3130	4899
1	3004	4900
1	2666	4901
1	2329	4902
1	1987	4903
1	1671	4904
1	1413	4905
1	1218	4906
1	1096	4907
1	1034	4908
1	1031	4909
1	1074	4910
1	1172	4911
1	1366	4912
1	1635	4913
1	1942	4914
1	2235	4915
1	2477	4916
1	2617	4917
1	2645	4918
1	2558	4919
1	2341	4940
1	2000	4941
1	1657	4942
1	1340	4943
1	1065	4944
1	839	4945
1	687	4946
1	610	4947
1	602	4948
1	660	4949
1	767	4950
1	919	4951
1	1170	4952
1	1492	4953
1	1847	4954
1	2194	4955
1	2475	4956
1	2644	4957
1	2685	4958
1	2599	4959
1	2325	4920
1	1975	4921
1	1656	4922
1	1363	4923
1	1106	4924
1	905	4925
1	756	4926
1	686	4927
1	681	4928
1	732	4929
1	828	4930
1	993	4931
1	1245	4932
1	1555	4933
1	1896	4934
1	2221	4935
1	2493	4936
1	2643	4937
1	2672	4938
1	2579	4939
1	2380	4960
1	2047	4961
1	1715	4962
1	1411	4963
1	1135	4964
1	909	4965
1	751	4966
1	663	4967
1	639	4968
1	676	4969
1	765	4970
1	900	4971
1	1136	4972
1	1450	4973
1	1803	4974
1	2138	4975
1	2415	4976
1	2580	4977
1	2628	4978
1	2545	4979
1	2318	4980
1	1991	4981
1	1677	4982
1	1381	4983
1	1118	4984
1	922	4985
1	796	4986
1	738	4987
1	745	4988
1	809	4989
1	914	4990
1	1058	4991
1	1285	4992
1	1582	4993
1	1922	4994
1	2244	4995
1	2503	4996
1	2655	4997
1	2692	4998
1	2605	4999
1	2390	5000
1	2060	5001
1	1730	5002
1	1427	5003
1	1149	5004
1	927	5005
1	777	5006
1	698	5007
1	690	5008
1	742	5009
1	835	5010
1	983	5011
1	1217	5012
1	1532	5013
1	1887	5014
1	2232	5015
1	2503	5016
1	2664	5017
1	2709	5018
1	2632	5019
1	2415	5040
1	2097	5041
1	1788	5042
1	1499	5043
1	1238	5044
1	1033	5045
1	889	5046
1	818	5047
1	810	5048
1	860	5049
1	953	5050
1	1093	5051
1	1321	5052
1	1626	5053
1	1968	5054
1	2296	5055
1	2565	5056
1	2745	5057
1	2801	5058
1	2731	5059
1	2417	5020
1	2066	5021
1	1737	5022
1	1440	5023
1	1165	5024
1	950	5025
1	807	5026
1	727	5027
1	713	5028
1	755	5029
1	836	5030
1	965	5031
1	1192	5032
1	1501	5033
1	1860	5034
1	2188	5035
1	2470	5036
1	2635	5037
1	2688	5038
1	2623	5039
1	2524	5060
1	2202	5061
1	1884	5062
1	1587	5063
1	1319	5064
1	1110	5065
1	971	5066
1	900	5067
1	895	5068
1	936	5069
1	1017	5070
1	1139	5071
1	1360	5072
1	1662	5073
1	2013	5074
1	2366	5075
1	2629	5076
1	2802	5077
1	2854	5078
1	2779	5079
1	2576	5080
1	2264	5081
1	1961	5082
1	1671	5083
1	1414	5084
1	1202	5085
1	1055	5086
1	983	5087
1	979	5088
1	1022	5089
1	1116	5090
1	1254	5091
1	1485	5092
1	1790	5093
1	2140	5094
1	2487	5095
1	2732	5096
1	2898	5097
1	2938	5098
1	2848	5099
1	2632	5100
1	2325	5101
1	2012	5102
1	1720	5103
1	1461	5104
1	1241	5105
1	1089	5106
1	1005	5107
1	990	5108
1	1039	5109
1	1144	5110
1	1299	5111
1	1548	5112
1	1867	5113
1	2219	5114
1	2549	5115
1	2810	5116
1	2996	5117
1	3041	5118
1	2951	5119
1	2717	5120
1	2386	5121
1	2041	5122
1	1737	5123
1	1441	5124
1	1215	5125
1	1049	5126
1	953	5127
1	928	5128
1	960	5129
1	1040	5130
1	1170	5131
1	1398	5132
1	1699	5133
1	2042	5134
1	2382	5135
1	2644	5136
1	2818	5137
1	2873	5138
1	2794	5139
1	2581	5140
1	2248	5141
1	1898	5142
1	1568	5143
1	1268	5144
1	1021	5145
1	843	5146
1	744	5147
1	719	5148
1	751	5149
1	839	5150
1	975	5151
1	1197	5152
1	1503	5153
1	1855	5154
1	2196	5155
1	2492	5156
1	2673	5157
1	2738	5158
1	2675	5159
1	2472	5160
1	2142	5161
1	1813	5162
1	1498	5163
1	1215	5164
1	1001	5165
1	841	5166
1	756	5167
1	734	5168
1	760	5169
1	830	5170
1	952	5171
1	1175	5172
1	1477	5173
1	1821	5174
1	2143	5175
1	2428	5176
1	2604	5177
1	2674	5178
1	2632	5179
1	2455	5180
1	2071	5181
1	1825	5182
1	1519	5183
1	1238	5184
1	1018	5185
1	852	5186
1	752	5187
1	710	5188
1	731	5189
1	806	5190
1	930	5191
1	1159	5192
1	1461	5193
1	1817	5194
1	2165	5195
1	2455	5196
1	2631	5197
1	2688	5198
1	2627	5199
1	2436	5200
1	2119	5201
1	1791	5202
1	1488	5203
1	1215	5204
1	989	5205
1	829	5206
1	751	5207
1	742	5208
1	782	5209
1	872	5210
1	1001	5211
1	1216	5212
1	1518	5213
1	1868	5214
1	2201	5215
1	2488	5216
1	2658	5217
1	2708	5218
1	2639	5219
1	2429	5220
1	2100	5221
1	1764	5222
1	1461	5223
1	1175	5224
1	956	5225
1	768	5226
1	708	5227
1	691	5228
1	729	5229
1	819	5230
1	954	5231
1	1188	5232
1	1501	5233
1	1856	5234
1	2196	5235
1	2491	5236
1	2669	5237
1	2730	5238
1	2665	5239
1	2467	5240
1	2131	5241
1	1794	5242
1	1484	5243
1	1214	5244
1	1003	5245
1	847	5246
1	767	5247
1	742	5248
1	772	5249
1	856	5250
1	987	5251
1	1211	5252
1	1504	5253
1	1846	5254
1	2183	5255
1	2463	5256
1	2626	5257
1	2674	5258
1	2600	5259
1	2393	5260
1	2062	5261
1	1726	5262
1	1416	5263
1	1136	5264
1	915	5265
1	775	5266
1	711	5267
1	705	5268
1	762	5269
1	868	5270
1	1018	5271
1	1256	5272
1	1567	5273
1	1922	5274
1	2269	5275
1	2550	5276
1	2735	5277
1	2791	5278
1	2717	5279
1	2506	5300
1	2186	5301
1	1857	5302
1	1539	5303
1	1252	5304
1	1030	5305
1	869	5306
1	783	5307
1	756	5308
1	778	5309
1	849	5310
1	974	5311
1	1188	5312
1	1491	5313
1	1835	5314
1	2173	5315
1	2467	5316
1	2649	5317
1	2721	5318
1	2666	5319
1	2512	5280
1	2163	5281
1	1841	5282
1	1526	5283
1	1238	5284
1	1006	5285
1	833	5286
1	736	5287
1	708	5288
1	743	5289
1	833	5290
1	979	5291
1	1219	5292
1	1540	5293
1	1895	5294
1	2233	5295
1	2506	5296
1	2685	5297
1	2753	5298
1	2695	5299
1	2486	5320
1	2148	5321
1	1824	5322
1	1508	5323
1	1228	5324
1	1016	5325
1	870	5326
1	799	5327
1	795	5328
1	841	5329
1	927	5330
1	1058	5331
1	1274	5332
1	1557	5333
1	1895	5334
1	2215	5335
1	2492	5336
1	2655	5337
1	2707	5338
1	2644	5339
1	2445	5340
1	2121	5341
1	1791	5342
1	1477	5343
1	1197	5344
1	977	5345
1	815	5346
1	731	5347
1	715	5348
1	757	5349
1	851	5350
1	996	5351
1	1228	5352
1	1535	5353
1	1886	5354
1	2219	5355
1	2506	5356
1	2696	5357
1	2767	5358
1	2717	5359
1	2534	5360
1	2220	5361
1	1886	5362
1	1566	5363
1	1276	5364
1	1040	5365
1	869	5366
1	774	5367
1	746	5368
1	787	5369
1	874	5370
1	1008	5371
1	1234	5372
1	1543	5373
1	1894	5374
1	2235	5375
1	2511	5376
1	2692	5377
1	2764	5378
1	2716	5379
1	2527	5380
1	2220	5381
1	1895	5382
1	1584	5383
1	1311	5384
1	1083	5385
1	903	5386
1	799	5387
1	758	5388
1	777	5389
1	847	5390
1	953	5391
1	1161	5392
1	1449	5393
1	1792	5394
1	2147	5395
1	2454	5396
1	2654	5397
1	2743	5398
1	2706	5399
1	2525	5400
1	2212	5401
1	1895	5402
1	1596	5403
1	1330	5404
1	1116	5405
1	960	5406
1	866	5407
1	843	5408
1	878	5409
1	971	5410
1	1097	5411
1	1310	5412
1	1607	5413
1	1950	5414
1	2288	5415
1	2558	5416
1	2749	5417
1	2821	5418
1	2768	5419
1	2576	5420
1	2243	5421
1	1908	5422
1	1597	5423
1	1297	5424
1	1071	5425
1	900	5426
1	796	5427
1	769	5428
1	798	5429
1	878	5430
1	1013	5431
1	1228	5432
1	1532	5433
1	1890	5434
1	2238	5435
1	2532	5436
1	2726	5437
1	2802	5438
1	2755	5439
1	2571	5440
1	2262	5441
1	1922	5442
1	1605	5443
1	1322	5444
1	1093	5445
1	926	5446
1	822	5447
1	784	5448
1	807	5449
1	883	5450
1	1009	5451
1	1220	5452
1	1513	5453
1	1859	5454
1	2196	5455
1	2491	5456
1	2677	5457
1	2754	5458
1	2710	5459
1	2524	5460
1	2210	5461
1	1881	5462
1	1564	5463
1	1278	5464
1	1049	5465
1	874	5466
1	774	5467
1	743	5468
1	769	5469
1	852	5470
1	979	5471
1	1188	5472
1	1478	5473
1	1818	5474
1	2143	5475
1	2422	5476
1	2597	5477
1	2655	5478
1	2601	5479
1	2423	5480
1	2114	5481
1	1796	5482
1	1503	5483
1	1239	5484
1	1022	5485
1	865	5486
1	785	5487
1	769	5488
1	804	5489
1	890	5490
1	1021	5491
1	1240	5492
1	1529	5493
1	1862	5494
1	2196	5495
1	2482	5496
1	2657	5497
1	2725	5498
1	2672	5499
1	2496	5500
1	2173	5501
1	1839	5502
1	1512	5503
1	1215	5504
1	963	5505
1	783	5506
1	677	5507
1	639	5508
1	665	5509
1	751	5510
1	874	5511
1	1097	5512
1	1398	5513
1	1746	5514
1	2090	5515
1	2391	5516
1	2595	5517
1	2685	5518
1	2655	5519
1	2493	5520
1	2183	5521
1	1872	5522
1	1593	5523
1	1346	5524
1	1164	5525
1	1034	5526
1	972	5527
1	981	5528
1	1047	5529
1	1162	5530
1	1319	5531
1	1567	5532
1	1899	5533
1	2292	5534
1	2674	5535
1	3026	5536
1	3130	5537
1	3130	5538
1	3130	5539
1	3130	5540
1	2836	5541
1	2504	5542
1	2183	5543
1	1878	5544
1	1602	5545
1	1377	5546
1	1225	5547
1	1134	5548
1	1097	5549
1	1109	5550
1	1162	5551
1	1310	5552
1	1542	5553
1	1831	5554
1	2125	5555
1	2369	5556
1	2535	5557
1	2595	5558
1	2538	5559
1	2359	5560
1	2052	5561
1	1724	5562
1	1417	5563
1	1141	5564
1	929	5565
1	796	5566
1	720	5567
1	705	5568
1	743	5569
1	831	5570
1	955	5571
1	1179	5572
1	1476	5573
1	1822	5574
1	2157	5575
1	2448	5576
1	2642	5577
1	2722	5578
1	2677	5579
1	2493	5580
1	2156	5581
1	1821	5582
1	1499	5583
1	1199	5584
1	972	5585
1	805	5586
1	715	5587
1	688	5588
1	707	5589
1	774	5590
1	887	5591
1	1088	5592
1	1372	5593
1	1711	5594
1	2042	5595
1	2323	5596
1	2522	5597
1	2608	5598
1	2589	5599
1	2444	5600
1	2149	5601
1	1836	5602
1	1539	5603
1	1272	5604
1	1056	5605
1	888	5606
1	787	5607
1	748	5608
1	767	5609
1	834	5610
1	947	5611
1	1153	5612
1	1437	5613
1	1773	5614
1	2118	5615
1	2422	5616
1	2629	5617
1	2724	5618
1	2686	5619
1	2516	5620
1	2184	5621
1	1844	5622
1	1508	5623
1	1194	5624
1	953	5625
1	774	5626
1	670	5627
1	639	5628
1	665	5629
1	748	5630
1	879	5631
1	1103	5632
1	1400	5633
1	1760	5634
1	2115	5635
1	2425	5636
1	2629	5637
1	2719	5638
1	2692	5639
1	2524	5640
1	2234	5641
1	1903	5642
1	1590	5643
1	1302	5644
1	1073	5645
1	900	5646
1	794	5647
1	749	5648
1	764	5649
1	830	5650
1	942	5651
1	1150	5652
1	1443	5653
1	1800	5654
1	2157	5655
1	2466	5656
1	2668	5657
1	2764	5658
1	2725	5659
1	2542	5660
1	2249	5661
1	1914	5662
1	1594	5663
1	1298	5664
1	1058	5665
1	874	5666
1	769	5667
1	730	5668
1	756	5669
1	831	5670
1	953	5671
1	1164	5672
1	1458	5673
1	1809	5674
1	2161	5675
1	2476	5676
1	2676	5677
1	2764	5678
1	2742	5679
1	2665	5700
1	2380	5701
1	2052	5702
1	1739	5703
1	1464	5704
1	1240	5705
1	1067	5706
1	958	5707
1	918	5708
1	936	5709
1	1009	5710
1	1123	5711
1	1323	5712
1	1610	5713
1	1953	5714
1	2290	5715
1	2583	5716
1	2798	5717
1	2898	5718
1	2877	5719
1	2590	5680
1	2316	5681
1	2000	5682
1	1697	5683
1	1421	5684
1	1179	5685
1	1005	5686
1	887	5687
1	841	5688
1	859	5689
1	928	5690
1	1044	5691
1	1248	5692
1	1546	5693
1	1900	5694
1	2258	5695
1	2558	5696
1	2770	5697
1	2869	5698
1	2839	5699
1	2704	5720
1	2404	5721
1	2066	5722
1	1749	5723
1	1469	5724
1	1233	5725
1	1065	5726
1	972	5727
1	953	5728
1	1004	5729
1	1098	5730
1	1230	5731
1	1451	5732
1	1746	5733
1	2102	5734
1	2456	5735
1	2734	5736
1	2946	5737
1	3051	5738
1	3025	5739
1	2860	5740
1	2581	5741
1	2268	5742
1	1956	5743
1	1674	5744
1	1430	5745
1	1251	5746
1	1137	5747
1	1089	5748
1	1105	5749
1	1171	5750
1	1283	5751
1	1481	5752
1	1760	5753
1	2097	5754
1	2449	5755
1	2732	5756
1	2953	5757
1	3053	5758
1	3019	5759
1	2698	5780
1	2402	5781
1	2052	5782
1	1724	5783
1	1428	5784
1	1179	5785
1	1005	5786
1	900	5787
1	864	5788
1	889	5789
1	960	5790
1	1066	5791
1	1246	5792
1	1521	5793
1	1859	5794
1	2201	5795
1	2506	5796
1	2698	5797
1	2777	5798
1	2735	5799
1	2566	5800
1	2274	5801
1	1937	5802
1	1620	5803
1	1333	5804
1	1099	5805
1	927	5806
1	824	5807
1	790	5808
1	808	5809
1	880	5810
1	998	5811
1	1188	5812
1	1465	5813
1	1795	5814
1	2139	5815
1	2450	5816
1	2664	5817
1	2761	5818
1	2735	5819
1	2836	5760
1	2535	5761
1	2191	5762
1	1881	5763
1	1603	5764
1	1383	5765
1	1215	5766
1	1109	5767
1	1067	5768
1	1078	5769
1	1138	5770
1	1245	5771
1	1436	5772
1	1699	5773
1	2022	5774
1	2345	5775
1	2621	5776
1	2825	5777
1	2921	5778
1	2875	5779
1	2570	5820
1	2266	5821
1	1917	5822
1	1598	5823
1	1310	5824
1	1085	5825
1	900	5826
1	787	5827
1	748	5828
1	764	5829
1	826	5830
1	927	5831
1	1123	5832
1	1408	5833
1	1754	5834
1	2106	5835
1	2428	5836
1	2654	5837
1	2772	5838
1	2765	5839
1	2609	5840
1	2331	5841
1	1985	5842
1	1685	5843
1	1384	5844
1	1134	5845
1	932	5846
1	809	5847
1	758	5848
1	774	5849
1	838	5850
1	949	5851
1	1142	5852
1	1424	5853
1	1764	5854
1	2114	5855
1	2424	5856
1	2640	5857
1	2744	5858
1	2724	5859
1	2572	5860
1	2296	5861
1	1966	5862
1	1652	5863
1	1358	5864
1	1112	5865
1	929	5866
1	816	5867
1	766	5868
1	770	5869
1	843	5870
1	950	5871
1	1145	5872
1	1430	5873
1	1769	5874
1	2121	5875
1	2436	5876
1	2648	5877
1	2754	5878
1	2734	5879
1	2661	5900
1	2395	5901
1	2066	5902
1	1759	5903
1	1476	5904
1	1233	5905
1	1053	5906
1	932	5907
1	887	5908
1	896	5909
1	949	5910
1	1045	5911
1	1224	5912
1	1492	5913
1	1826	5914
1	2165	5915
1	2466	5916
1	2664	5917
1	2762	5918
1	2738	5919
1	2579	5880
1	2296	5881
1	1952	5882
1	1624	5883
1	1319	5884
1	1071	5885
1	878	5886
1	769	5887
1	736	5888
1	759	5889
1	834	5890
1	952	5891
1	1148	5892
1	1431	5893
1	1778	5894
1	2133	5895
1	2462	5896
1	2694	5897
1	2817	5898
1	2808	5899
1	2583	5920
1	2282	5921
1	1958	5922
1	1643	5923
1	1348	5924
1	1123	5925
1	952	5926
1	844	5927
1	798	5928
1	818	5929
1	882	5930
1	995	5931
1	1188	5932
1	1459	5933
1	1792	5934
1	2134	5935
1	2451	5936
1	2675	5937
1	2799	5938
1	2799	5939
1	2642	5940
1	2367	5941
1	2019	5942
1	1695	5943
1	1384	5944
1	1142	5945
1	977	5946
1	874	5947
1	837	5948
1	860	5949
1	926	5950
1	1037	5951
1	1224	5952
1	1503	5953
1	1843	5954
1	2179	5955
1	2488	5956
1	2692	5957
1	2791	5958
1	2770	5959
1	2612	5960
1	2328	5961
1	1986	5962
1	1672	5963
1	1382	5964
1	1137	5965
1	950	5966
1	833	5967
1	792	5968
1	819	5969
1	906	5970
1	1046	5971
1	1256	5972
1	1547	5973
1	1895	5974
1	2239	5975
1	2536	5976
1	2755	5977
1	2870	5978
1	2850	5979
1	2690	5980
1	2423	5981
1	2079	5982
1	1756	5983
1	1462	5984
1	1215	5985
1	1027	5986
1	908	5987
1	860	5988
1	870	5989
1	936	5990
1	1042	5991
1	1232	5992
1	1520	5993
1	1868	5994
1	2222	5995
1	2543	5996
1	2773	5997
1	2885	5998
1	2867	5999
1	2703	6000
1	2419	6001
1	2066	6002
1	1738	6003
1	1438	6004
1	1197	6005
1	1017	6006
1	900	6007
1	848	6008
1	854	6009
1	916	6010
1	1018	6011
1	1196	6012
1	1468	6013
1	1801	6014
1	2147	6015
1	2467	6016
1	2685	6017
1	2815	6018
1	2835	6019
1	2710	6020
1	2470	6021
1	2157	6022
1	1855	6023
1	1587	6024
1	1346	6025
1	1163	6026
1	1040	6027
1	976	6028
1	957	6029
1	1006	6030
1	1101	6031
1	1276	6032
1	1543	6033
1	1873	6034
1	2228	6035
1	2526	6036
1	2744	6037
1	2853	6038
1	2842	6039
1	2658	6060
1	2393	6061
1	2052	6062
1	1734	6063
1	1441	6064
1	1203	6065
1	1017	6066
1	891	6067
1	835	6068
1	842	6069
1	905	6070
1	1007	6071
1	1173	6072
1	1430	6073
1	1751	6074
1	2082	6075
1	2393	6076
1	2607	6077
1	2725	6078
1	2716	6079
1	2694	6040
1	2431	6041
1	2088	6042
1	1763	6043
1	1463	6044
1	1188	6045
1	1009	6046
1	887	6047
1	839	6048
1	851	6049
1	920	6050
1	1031	6051
1	1207	6052
1	1478	6053
1	1815	6054
1	2165	6055
1	2491	6056
1	2706	6057
1	2818	6058
1	2805	6059
1	2583	6080
1	2325	6081
1	2000	6082
1	1697	6083
1	1417	6084
1	1175	6085
1	994	6086
1	883	6087
1	847	6088
1	870	6089
1	945	6090
1	1051	6091
1	1223	6092
1	1481	6093
1	1799	6094
1	2143	6095
1	2454	6096
1	2664	6097
1	2776	6098
1	2766	6099
1	2627	6100
1	2366	6101
1	2026	6102
1	1707	6103
1	1412	6104
1	1144	6105
1	928	6106
1	792	6107
1	740	6108
1	751	6109
1	825	6110
1	929	6111
1	1110	6112
1	1376	6113
1	1714	6114
1	2070	6115
1	2393	6116
1	2626	6117
1	2754	6118
1	2762	6119
1	2637	6120
1	2377	6121
1	2052	6122
1	1762	6123
1	1500	6124
1	1288	6125
1	1125	6126
1	1044	6127
1	1031	6128
1	1082	6129
1	1193	6130
1	1337	6131
1	1556	6132
1	1865	6133
1	2236	6134
1	2609	6135
1	2963	6136
1	3130	6137
1	3130	6138
1	3130	6139
1	3130	6140
1	2947	6141
1	2604	6142
1	2309	6143
1	1992	6144
1	1708	6145
1	1476	6146
1	1294	6147
1	1186	6148
1	1139	6149
1	1143	6150
1	1186	6151
1	1292	6152
1	1488	6153
1	1746	6154
1	2048	6155
1	2332	6156
1	2550	6157
1	2670	6158
1	2674	6159
1	2546	6160
1	2285	6161
1	1952	6162
1	1639	6163
1	1357	6164
1	1115	6165
1	936	6166
1	824	6167
1	781	6168
1	787	6169
1	851	6170
1	945	6171
1	1116	6172
1	1380	6173
1	1713	6174
1	2065	6175
1	2387	6176
1	2623	6177
1	2760	6178
1	2770	6179
1	2640	6180
1	2387	6181
1	2051	6182
1	1728	6183
1	1436	6184
1	1190	6185
1	1005	6186
1	883	6187
1	828	6188
1	830	6189
1	882	6190
1	985	6191
1	1161	6192
1	1428	6193
1	1752	6194
1	2096	6195
1	2415	6196
1	2644	6197
1	2772	6198
1	2774	6199
1	2646	6200
1	2387	6201
1	2044	6202
1	1715	6203
1	1416	6204
1	1152	6205
1	953	6206
1	831	6207
1	782	6208
1	787	6209
1	833	6210
1	927	6211
1	1103	6212
1	1371	6213
1	1707	6214
1	2079	6215
1	2404	6216
1	2640	6217
1	2774	6218
1	2785	6219
1	2665	6220
1	2394	6221
1	2066	6222
1	1737	6223
1	1425	6224
1	1167	6225
1	979	6226
1	855	6227
1	805	6228
1	807	6229
1	874	6230
1	979	6231
1	1144	6232
1	1402	6233
1	1730	6234
1	2073	6235
1	2400	6236
1	2644	6237
1	2777	6238
1	2790	6239
1	2657	6240
1	2419	6241
1	2083	6242
1	1768	6243
1	1473	6244
1	1220	6245
1	1026	6246
1	890	6247
1	828	6248
1	833	6249
1	896	6250
1	1002	6251
1	1166	6252
1	1425	6253
1	1745	6254
1	2081	6255
1	2396	6256
1	2621	6257
1	2743	6258
1	2747	6259
1	2673	6280
1	2414	6281
1	2079	6282
1	1764	6283
1	1480	6284
1	1237	6285
1	1049	6286
1	922	6287
1	860	6288
1	854	6289
1	923	6290
1	1031	6291
1	1209	6292
1	1482	6293
1	1820	6294
1	2166	6295
1	2489	6296
1	2719	6297
1	2860	6298
1	2875	6299
1	2634	6260
1	2389	6261
1	2056	6262
1	1742	6263
1	1455	6264
1	1214	6265
1	1037	6266
1	927	6267
1	888	6268
1	908	6269
1	965	6270
1	1069	6271
1	1241	6272
1	1503	6273
1	1819	6274
1	2172	6275
1	2488	6276
1	2699	6277
1	2818	6278
1	2808	6279
1	2753	6300
1	2509	6301
1	2182	6302
1	1877	6303
1	1583	6304
1	1342	6305
1	1162	6306
1	1048	6307
1	1005	6308
1	1018	6309
1	1088	6310
1	1204	6311
1	1384	6312
1	1657	6313
1	1980	6314
1	2318	6315
1	2620	6316
1	2855	6317
1	2991	6318
1	2992	6319
1	2856	6320
1	2584	6321
1	2260	6322
1	1949	6323
1	1647	6324
1	1384	6325
1	1215	6326
1	1089	6327
1	1040	6328
1	1053	6329
1	1121	6330
1	1240	6331
1	1425	6332
1	1697	6333
1	2026	6334
1	2400	6335
1	2712	6336
1	2968	6337
1	3128	6338
1	3130	6339
1	3002	6340
1	2740	6341
1	2425	6342
1	2092	6343
1	1789	6344
1	1508	6345
1	1319	6346
1	1181	6347
1	1111	6348
1	1099	6349
1	1160	6350
1	1249	6351
1	1409	6352
1	1659	6353
1	1976	6354
1	2327	6355
1	2639	6356
1	2883	6357
1	3033	6358
1	3053	6359
1	2930	6360
1	2672	6361
1	2345	6362
1	2014	6363
1	1710	6364
1	1464	6365
1	1256	6366
1	1120	6367
1	1055	6368
1	1049	6369
1	1096	6370
1	1186	6371
1	1343	6372
1	1599	6373
1	1926	6374
1	2274	6375
1	2581	6376
1	2810	6377
1	2941	6378
1	2946	6379
1	2811	6380
1	2551	6381
1	2208	6382
1	1883	6383
1	1581	6384
1	1317	6385
1	1112	6386
1	977	6387
1	909	6388
1	913	6389
1	972	6390
1	1068	6391
1	1222	6392
1	1470	6393
1	1769	6394
1	2120	6395
1	2440	6396
1	2670	6397
1	2813	6398
1	2826	6399
1	2709	6400
1	2474	6401
1	2131	6402
1	1814	6403
1	1515	6404
1	1249	6405
1	1049	6406
1	903	6407
1	835	6408
1	821	6409
1	872	6410
1	960	6411
1	1116	6412
1	1362	6413
1	1686	6414
1	2040	6415
1	2370	6416
1	2612	6417
1	2752	6418
1	2763	6419
1	2641	6420
1	2384	6421
1	2039	6422
1	1718	6423
1	1422	6424
1	1167	6425
1	953	6426
1	821	6427
1	745	6428
1	746	6429
1	796	6430
1	888	6431
1	1053	6432
1	1309	6433
1	1637	6434
1	1989	6435
1	2322	6436
1	2577	6437
1	2732	6438
1	2764	6439
1	2668	6440
1	2444	6441
1	2101	6442
1	1814	6443
1	1521	6444
1	1268	6445
1	1071	6446
1	932	6447
1	864	6448
1	857	6449
1	905	6450
1	1000	6451
1	1149	6452
1	1394	6453
1	1698	6454
1	2052	6455
1	2367	6456
1	2599	6457
1	2735	6458
1	2757	6459
1	2648	6460
1	2415	6461
1	2079	6462
1	1762	6463
1	1472	6464
1	1215	6465
1	1030	6466
1	898	6467
1	834	6468
1	831	6469
1	882	6470
1	976	6471
1	1123	6472
1	1372	6473
1	1697	6474
1	2051	6475
1	2382	6476
1	2626	6477
1	2770	6478
1	2788	6479
1	2704	6500
1	2476	6501
1	2133	6502
1	1816	6503
1	1517	6504
1	1256	6505
1	1058	6506
1	914	6507
1	846	6508
1	837	6509
1	878	6510
1	964	6511
1	1115	6512
1	1351	6513
1	1668	6514
1	2022	6515
1	2349	6516
1	2592	6517
1	2735	6518
1	2760	6519
1	2669	6480
1	2427	6481
1	2084	6482
1	1757	6483
1	1450	6484
1	1188	6485
1	996	6486
1	872	6487
1	814	6488
1	819	6489
1	869	6490
1	965	6491
1	1132	6492
1	1384	6493
1	1698	6494
1	2039	6495
1	2364	6496
1	2610	6497
1	2769	6498
1	2797	6499
1	2654	6520
1	2409	6521
1	2079	6522
1	1756	6523
1	1456	6524
1	1199	6525
1	1005	6526
1	866	6527
1	805	6528
1	809	6529
1	868	6530
1	972	6531
1	1134	6532
1	1384	6533
1	1713	6534
1	2057	6535
1	2384	6536
1	2628	6537
1	2777	6538
1	2802	6539
1	2687	6540
1	2480	6541
1	2147	6542
1	1839	6543
1	1542	6544
1	1283	6545
1	1085	6546
1	947	6547
1	878	6548
1	870	6549
1	914	6550
1	1006	6551
1	1154	6552
1	1400	6553
1	1710	6554
1	2055	6555
1	2368	6556
1	2622	6557
1	2775	6558
1	2797	6559
1	2696	6560
1	2471	6561
1	2131	6562
1	1808	6563
1	1503	6564
1	1233	6565
1	1021	6566
1	876	6567
1	816	6568
1	822	6569
1	877	6570
1	980	6571
1	1139	6572
1	1397	6573
1	1715	6574
1	2078	6575
1	2413	6576
1	2658	6577
1	2815	6578
1	2843	6579
1	2738	6580
1	2511	6581
1	2172	6582
1	1855	6583
1	1551	6584
1	1283	6585
1	1077	6586
1	934	6587
1	870	6588
1	862	6589
1	909	6590
1	1006	6591
1	1162	6592
1	1422	6593
1	1739	6594
1	2086	6595
1	2419	6596
1	2660	6597
1	2808	6598
1	2831	6599
1	2725	6600
1	2496	6601
1	2164	6602
1	1852	6603
1	1557	6604
1	1299	6605
1	1098	6606
1	953	6607
1	881	6608
1	865	6609
1	901	6610
1	990	6611
1	1132	6612
1	1371	6613
1	1685	6614
1	2042	6615
1	2372	6616
1	2638	6617
1	2809	6618
1	2843	6619
1	2745	6620
1	2503	6621
1	2150	6622
1	1822	6623
1	1504	6624
1	1215	6625
1	1040	6626
1	903	6627
1	846	6628
1	848	6629
1	908	6630
1	1016	6631
1	1173	6632
1	1422	6633
1	1727	6634
1	2063	6635
1	2374	6636
1	2609	6637
1	2758	6638
1	2784	6639
1	2685	6640
1	2458	6641
1	2113	6642
1	1779	6643
1	1472	6644
1	1162	6645
1	956	6646
1	805	6647
1	731	6648
1	726	6649
1	788	6650
1	887	6651
1	1042	6652
1	1289	6653
1	1611	6654
1	1974	6655
1	2312	6656
1	2562	6657
1	2715	6658
1	2748	6659
1	2654	6660
1	2447	6661
1	2122	6662
1	1803	6663
1	1503	6664
1	1235	6665
1	1023	6666
1	874	6667
1	793	6668
1	770	6669
1	806	6670
1	891	6671
1	1040	6672
1	1283	6673
1	1607	6674
1	1953	6675
1	2287	6676
1	2545	6677
1	2706	6678
1	2745	6679
1	2660	6680
1	2440	6681
1	2099	6682
1	1769	6683
1	1463	6684
1	1187	6685
1	965	6686
1	814	6687
1	739	6688
1	738	6689
1	795	6690
1	886	6691
1	1031	6692
1	1266	6693
1	1572	6694
1	1922	6695
1	2253	6696
1	2515	6697
1	2672	6698
1	2700	6699
1	2595	6700
1	2359	6701
1	2018	6702
1	1683	6703
1	1373	6704
1	1108	6705
1	905	6706
1	777	6707
1	716	6708
1	716	6709
1	775	6710
1	878	6711
1	1044	6712
1	1302	6713
1	1643	6714
1	2025	6715
1	2399	6716
1	2694	6717
1	2902	6718
1	2993	6719
1	2940	6720
1	2737	6721
1	2462	6722
1	2174	6723
1	1921	6724
1	1712	6725
1	1546	6726
1	1449	6727
1	1395	6728
1	1402	6729
1	1442	6730
1	1516	6731
1	1642	6732
1	1865	6733
1	2148	6734
1	2467	6735
1	2735	6736
1	2954	6737
1	3077	6738
1	3050	6739
1	2889	6740
1	2611	6741
1	2247	6742
1	1881	6743
1	1553	6744
1	1265	6745
1	1037	6746
1	875	6747
1	790	6748
1	765	6749
1	795	6750
1	864	6751
1	1005	6752
1	1240	6753
1	1555	6754
1	1908	6755
1	2236	6756
1	2505	6757
1	2651	6758
1	2685	6759
1	2592	6760
1	2366	6761
1	2028	6762
1	1696	6763
1	1383	6764
1	1092	6765
1	883	6766
1	739	6767
1	667	6768
1	661	6769
1	707	6770
1	800	6771
1	941	6772
1	1190	6773
1	1529	6774
1	1904	6775
1	2249	6776
1	2519	6777
1	2687	6778
1	2725	6779
1	2625	6780
1	2407	6781
1	2061	6782
1	1716	6783
1	1400	6784
1	1125	6785
1	911	6786
1	769	6787
1	695	6788
1	681	6789
1	729	6790
1	824	6791
1	981	6792
1	1233	6793
1	1557	6794
1	1934	6795
1	2251	6796
1	2515	6797
1	2672	6798
1	2707	6799
1	2623	6800
1	2397	6801
1	2052	6802
1	1717	6803
1	1418	6804
1	1149	6805
1	941	6806
1	801	6807
1	739	6808
1	742	6809
1	794	6810
1	889	6811
1	1050	6812
1	1301	6813
1	1621	6814
1	1978	6815
1	2301	6816
1	2553	6817
1	2706	6818
1	2745	6819
1	2662	6820
1	2436	6821
1	2109	6822
1	1788	6823
1	1481	6824
1	1224	6825
1	1019	6826
1	874	6827
1	798	6828
1	778	6829
1	812	6830
1	885	6831
1	1005	6832
1	1220	6833
1	1521	6834
1	1869	6835
1	2199	6836
1	2480	6837
1	2644	6838
1	2692	6839
1	2596	6840
1	2404	6841
1	2077	6842
1	1751	6843
1	1443	6844
1	1162	6845
1	945	6846
1	793	6847
1	726	6848
1	724	6849
1	778	6850
1	874	6851
1	1022	6852
1	1263	6853
1	1579	6854
1	1944	6855
1	2258	6856
1	2518	6857
1	2681	6858
1	2724	6859
1	2648	6860
1	2445	6861
1	2109	6862
1	1776	6863
1	1471	6864
1	1193	6865
1	981	6866
1	835	6867
1	769	6868
1	769	6869
1	828	6870
1	931	6871
1	1088	6872
1	1330	6873
1	1643	6874
1	2001	6875
1	2343	6876
1	2601	6877
1	2758	6878
1	2782	6879
1	2685	6880
1	2471	6881
1	2131	6882
1	1815	6883
1	1513	6884
1	1251	6885
1	1056	6886
1	921	6887
1	856	6888
1	848	6889
1	897	6890
1	993	6891
1	1138	6892
1	1379	6893
1	1693	6894
1	2048	6895
1	2399	6896
1	2666	6897
1	2852	6898
1	2908	6899
1	2824	6900
1	2602	6901
1	2275	6902
1	1939	6903
1	1625	6904
1	1346	6905
1	1136	6906
1	991	6907
1	918	6908
1	921	6909
1	988	6910
1	1095	6911
1	1241	6912
1	1476	6913
1	1777	6914
1	2135	6915
1	2454	6916
1	2712	6917
1	2892	6918
1	2944	6919
1	2873	6920
1	2657	6921
1	2357	6922
1	2049	6923
1	1751	6924
1	1450	6925
1	1261	6926
1	1105	6927
1	1024	6928
1	1013	6929
1	1057	6930
1	1142	6931
1	1277	6932
1	1503	6933
1	1798	6934
1	2139	6935
1	2474	6936
1	2729	6937
1	2913	6938
1	2969	6939
1	2894	6940
1	2686	6941
1	2381	6942
1	2052	6943
1	1751	6944
1	1450	6945
1	1263	6946
1	1113	6947
1	1037	6948
1	1026	6949
1	1071	6950
1	1152	6951
1	1283	6952
1	1508	6953
1	1799	6954
1	2131	6955
1	2460	6956
1	2704	6957
1	2875	6958
1	2929	6959
1	2842	6960
1	2637	6961
1	2322	6962
1	1986	6963
1	1675	6964
1	1407	6965
1	1184	6966
1	1027	6967
1	932	6968
1	906	6969
1	935	6970
1	1017	6971
1	1137	6972
1	1353	6973
1	1652	6974
1	1991	6975
1	2317	6976
1	2577	6977
1	2753	6978
1	2801	6979
1	2730	6980
1	2523	6981
1	2199	6982
1	1869	6983
1	1555	6984
1	1271	6985
1	1042	6986
1	874	6987
1	785	6988
1	764	6989
1	806	6990
1	882	6991
1	1018	6992
1	1248	6993
1	1557	6994
1	1922	6995
1	2264	6996
1	2535	6997
1	2709	6998
1	2758	6999
1	2681	7000
1	2471	7001
1	2126	7002
1	1783	7003
1	1464	7004
1	1173	7005
1	945	7006
1	782	7007
1	691	7008
1	668	7009
1	718	7010
1	818	7011
1	963	7012
1	1203	7013
1	1518	7014
1	1882	7015
1	2236	7016
1	2520	7017
1	2703	7018
1	2760	7019
1	2635	7040
1	2437	7041
1	2105	7042
1	1803	7043
1	1508	7044
1	1242	7045
1	1037	7046
1	900	7047
1	828	7048
1	822	7049
1	869	7050
1	953	7051
1	1086	7052
1	1302	7053
1	1587	7054
1	1926	7055
1	2246	7056
1	2508	7057
1	2672	7058
1	2724	7059
1	2682	7020
1	2493	7021
1	2160	7022
1	1844	7023
1	1530	7024
1	1262	7025
1	1031	7026
1	871	7027
1	765	7028
1	749	7029
1	783	7030
1	862	7031
1	989	7032
1	1205	7033
1	1503	7034
1	1860	7035
1	2183	7036
1	2469	7037
1	2643	7038
1	2699	7039
1	2750	7080
1	2553	7081
1	2243	7082
1	1917	7083
1	1609	7084
1	1332	7085
1	1095	7086
1	916	7087
1	810	7088
1	778	7089
1	810	7090
1	891	7091
1	1022	7092
1	1256	7093
1	1575	7094
1	1949	7095
1	2303	7096
1	2599	7097
1	2801	7098
1	2879	7099
1	2654	7060
1	2456	7061
1	2130	7062
1	1800	7063
1	1494	7064
1	1202	7065
1	1004	7066
1	848	7067
1	765	7068
1	743	7069
1	781	7070
1	874	7071
1	1019	7072
1	1257	7073
1	1580	7074
1	1944	7075
1	2296	7076
1	2580	7077
1	2768	7078
1	2827	7079
1	2834	7100
1	2648	7101
1	2346	7102
1	2003	7103
1	1677	7104
1	1380	7105
1	1136	7106
1	953	7107
1	852	7108
1	832	7109
1	877	7110
1	975	7111
1	1107	7112
1	1331	7113
1	1634	7114
1	1989	7115
1	2335	7116
1	2608	7117
1	2793	7118
1	2848	7119
1	2776	7120
1	2559	7121
1	2237	7122
1	1916	7123
1	1593	7124
1	1310	7125
1	1085	7126
1	926	7127
1	846	7128
1	830	7129
1	875	7130
1	964	7131
1	1092	7132
1	1304	7133
1	1598	7134
1	1939	7135
1	2276	7136
1	2552	7137
1	2737	7138
1	2807	7139
1	2742	7140
1	2572	7141
1	2274	7142
1	1946	7143
1	1634	7144
1	1337	7145
1	1098	7146
1	925	7147
1	822	7148
1	801	7149
1	839	7150
1	933	7151
1	1081	7152
1	1315	7153
1	1629	7154
1	2004	7155
1	2331	7156
1	2617	7157
1	2818	7158
1	2893	7159
1	2848	7160
1	2664	7161
1	2368	7162
1	2030	7163
1	1712	7164
1	1414	7165
1	1162	7166
1	979	7167
1	861	7168
1	809	7169
1	822	7170
1	893	7171
1	1022	7172
1	1241	7173
1	1544	7174
1	1907	7175
1	2262	7176
1	2561	7177
1	2782	7178
1	2874	7179
1	2831	7180
1	2647	7181
1	2354	7182
1	2030	7183
1	1730	7184
1	1461	7185
1	1242	7186
1	1083	7187
1	992	7188
1	958	7189
1	985	7190
1	1056	7191
1	1166	7192
1	1369	7193
1	1651	7194
1	1984	7195
1	2314	7196
1	2580	7197
1	2766	7198
1	2836	7199
1	2776	7200
1	2589	7201
1	2287	7202
1	1952	7203
1	1636	7204
1	1350	7205
1	1122	7206
1	953	7207
1	857	7208
1	826	7209
1	853	7210
1	935	7211
1	1060	7212
1	1267	7213
1	1548	7214
1	1901	7215
1	2199	7216
1	2488	7217
1	2665	7218
1	2732	7219
1	2687	7220
1	2501	7221
1	2171	7222
1	1860	7223
1	1555	7224
1	1281	7225
1	1055	7226
1	890	7227
1	796	7228
1	765	7229
1	796	7230
1	872	7231
1	986	7232
1	1186	7233
1	1471	7234
1	1816	7235
1	2157	7236
1	2462	7237
1	2652	7238
1	2736	7239
1	2695	7260
1	2519	7261
1	2201	7262
1	1869	7263
1	1555	7264
1	1272	7265
1	1036	7266
1	864	7267
1	769	7268
1	743	7269
1	780	7270
1	874	7271
1	1015	7272
1	1233	7273
1	1533	7274
1	1881	7275
1	2194	7276
1	2480	7277
1	2654	7278
1	2715	7279
1	2695	7240
1	2523	7241
1	2222	7242
1	1900	7243
1	1598	7244
1	1284	7245
1	1092	7246
1	923	7247
1	824	7248
1	801	7249
1	841	7250
1	926	7251
1	1058	7252
1	1269	7253
1	1557	7254
1	1895	7255
1	2222	7256
1	2509	7257
1	2694	7258
1	2764	7259
1	2657	7280
1	2471	7281
1	2140	7282
1	1791	7283
1	1477	7284
1	1189	7285
1	960	7286
1	792	7287
1	700	7288
1	679	7289
1	725	7290
1	827	7291
1	990	7292
1	1238	7293
1	1572	7294
1	1963	7295
1	2354	7296
1	2681	7297
1	2931	7298
1	3064	7299
1	3059	7300
1	2908	7301
1	2647	7302
1	2372	7303
1	2096	7304
1	1844	7305
1	1652	7306
1	1512	7307
1	1432	7308
1	1398	7309
1	1422	7310
1	1485	7311
1	1583	7312
1	1757	7313
1	2002	7314
1	2293	7315
1	2577	7316
1	2810	7317
1	2975	7318
1	3022	7319
1	2941	7320
1	2705	7321
1	2359	7322
1	1985	7323
1	1641	7324
1	1344	7325
1	1098	7326
1	922	7327
1	816	7328
1	783	7329
1	808	7330
1	885	7331
1	1014	7332
1	1231	7333
1	1530	7334
1	1886	7335
1	2237	7336
1	2535	7337
1	2744	7338
1	2828	7339
1	2790	7340
1	2611	7341
1	2326	7342
1	1997	7343
1	1684	7344
1	1398	7345
1	1165	7346
1	1003	7347
1	900	7348
1	867	7349
1	893	7350
1	960	7351
1	1083	7352
1	1289	7353
1	1574	7354
1	1914	7355
1	2262	7356
1	2540	7357
1	2730	7358
1	2803	7359
1	2754	7360
1	2577	7361
1	2279	7362
1	1948	7363
1	1636	7364
1	1328	7365
1	1131	7366
1	959	7367
1	860	7368
1	826	7369
1	855	7370
1	927	7371
1	1050	7372
1	1265	7373
1	1556	7374
1	1899	7375
1	2244	7376
1	2540	7377
1	2750	7378
1	2843	7379
1	2782	7380
1	2607	7381
1	2314	7382
1	1978	7383
1	1665	7384
1	1382	7385
1	1142	7386
1	963	7387
1	858	7388
1	821	7389
1	846	7390
1	918	7391
1	1035	7392
1	1238	7393
1	1523	7394
1	1875	7395
1	2211	7396
1	2516	7397
1	2724	7398
1	2810	7399
1	2777	7400
1	2608	7401
1	2320	7402
1	1988	7403
1	1680	7404
1	1398	7405
1	1167	7406
1	1001	7407
1	898	7408
1	870	7409
1	900	7410
1	979	7411
1	1099	7412
1	1301	7413
1	1586	7414
1	1926	7415
1	2265	7416
1	2548	7417
1	2740	7418
1	2816	7419
1	2764	7420
1	2580	7421
1	2281	7422
1	1944	7423
1	1633	7424
1	1343	7425
1	1111	7426
1	945	7427
1	852	7428
1	828	7429
1	861	7430
1	949	7431
1	1086	7432
1	1292	7433
1	1589	7434
1	1934	7435
1	2262	7436
1	2535	7437
1	2725	7438
1	2802	7439
1	2762	7440
1	2595	7441
1	2315	7442
1	1993	7443
1	1686	7444
1	1412	7445
1	1179	7446
1	1007	7447
1	900	7448
1	869	7449
1	900	7450
1	979	7451
1	1098	7452
1	1304	7453
1	1597	7454
1	1994	7455
1	2293	7456
1	2599	7457
1	2817	7458
1	2911	7459
1	2877	7460
1	2702	7461
1	2417	7462
1	2079	7463
1	1767	7464
1	1490	7465
1	1250	7466
1	1071	7467
1	958	7468
1	925	7469
1	953	7470
1	1040	7471
1	1174	7472
1	1399	7473
1	1703	7474
1	2063	7475
1	2417	7476
1	2694	7477
1	2901	7478
1	2997	7479
1	2964	7480
1	2795	7481
1	2516	7482
1	2186	7483
1	1873	7484
1	1569	7485
1	1335	7486
1	1157	7487
1	1046	7488
1	1009	7489
1	1040	7490
1	1124	7491
1	1248	7492
1	1456	7493
1	1742	7494
1	2088	7495
1	2445	7496
1	2727	7497
1	2943	7498
1	3033	7499
1	2995	7500
1	2813	7501
1	2520	7502
1	2182	7503
1	1868	7504
1	1585	7505
1	1354	7506
1	1188	7507
1	1084	7508
1	1049	7509
1	1080	7510
1	1166	7511
1	1289	7512
1	1495	7513
1	1787	7514
1	2144	7515
1	2491	7516
1	2780	7517
1	3010	7518
1	3121	7519
1	3098	7520
1	2911	7521
1	2601	7522
1	2287	7523
1	1957	7524
1	1658	7525
1	1400	7526
1	1217	7527
1	1113	7528
1	1074	7529
1	1100	7530
1	1170	7531
1	1273	7532
1	1456	7533
1	1723	7534
1	2055	7535
1	2407	7536
1	2703	7537
1	2915	7538
1	3012	7539
1	2974	7540
1	2799	7541
1	2514	7542
1	2168	7543
1	1850	7544
1	1512	7545
1	1312	7546
1	1133	7547
1	1018	7548
1	965	7549
1	981	7550
1	1044	7551
1	1146	7552
1	1321	7553
1	1583	7554
1	1908	7555
1	2238	7556
1	2528	7557
1	2730	7558
1	2824	7559
1	2787	7560
1	2623	7561
1	2339	7562
1	2002	7563
1	1691	7564
1	1409	7565
1	1171	7566
1	1002	7567
1	898	7568
1	862	7569
1	885	7570
1	963	7571
1	1084	7572
1	1280	7573
1	1557	7574
1	1921	7575
1	2222	7576
1	2525	7577
1	2745	7578
1	2849	7579
1	2830	7580
1	2667	7581
1	2386	7582
1	2035	7583
1	1700	7584
1	1380	7585
1	1114	7586
1	914	7587
1	790	7588
1	743	7589
1	765	7590
1	844	7591
1	965	7592
1	1163	7593
1	1450	7594
1	1793	7595
1	2144	7596
1	2461	7597
1	2668	7598
1	2770	7599
1	2747	7600
1	2592	7601
1	2316	7602
1	1982	7603
1	1670	7604
1	1371	7605
1	1147	7606
1	970	7607
1	855	7608
1	824	7609
1	864	7610
1	949	7611
1	1063	7612
1	1241	7613
1	1499	7614
1	1812	7615
1	2131	7616
1	2422	7617
1	2611	7618
1	2699	7619
1	2664	7620
1	2509	7621
1	2210	7622
1	1879	7623
1	1566	7624
1	1288	7625
1	1046	7626
1	873	7627
1	758	7628
1	717	7629
1	738	7630
1	809	7631
1	915	7632
1	1097	7633
1	1363	7634
1	1693	7635
1	2031	7636
1	2335	7637
1	2548	7638
1	2652	7639
1	2643	7640
1	2503	7641
1	2217	7642
1	1884	7643
1	1583	7644
1	1294	7645
1	1053	7646
1	861	7647
1	741	7648
1	693	7649
1	717	7650
1	784	7651
1	899	7652
1	1094	7653
1	1372	7654
1	1721	7655
1	2066	7656
1	2379	7657
1	2595	7658
1	2707	7659
1	2704	7660
1	2561	7661
1	2292	7662
1	1962	7663
1	1643	7664
1	1312	7665
1	1094	7666
1	904	7667
1	780	7668
1	729	7669
1	743	7670
1	801	7671
1	910	7672
1	1104	7673
1	1384	7674
1	1735	7675
1	2086	7676
1	2401	7677
1	2622	7678
1	2726	7679
1	2700	7680
1	2548	7681
1	2264	7682
1	1923	7683
1	1607	7684
1	1319	7685
1	1075	7686
1	891	7687
1	775	7688
1	731	7689
1	749	7690
1	829	7691
1	954	7692
1	1153	7693
1	1428	7694
1	1775	7695
1	2105	7696
1	2428	7697
1	2655	7698
1	2785	7699
1	2790	7700
1	2656	7701
1	2393	7702
1	2048	7703
1	1718	7704
1	1418	7705
1	1160	7706
1	960	7707
1	834	7708
1	778	7709
1	783	7710
1	837	7711
1	941	7712
1	1123	7713
1	1383	7714
1	1713	7715
1	2053	7716
1	2364	7717
1	2577	7718
1	2684	7719
1	2745	7740
1	2597	7741
1	2325	7742
1	1985	7743
1	1661	7744
1	1367	7745
1	1122	7746
1	932	7747
1	822	7748
1	775	7749
1	783	7750
1	843	7751
1	941	7752
1	1114	7753
1	1377	7754
1	1769	7755
1	2052	7756
1	2367	7757
1	2589	7758
1	2709	7759
1	2668	7740
1	2515	7741
1	2210	7742
1	1903	7743
1	1576	7744
1	1281	7745
1	1043	7746
1	860	7747
1	756	7748
1	717	7749
1	743	7750
1	822	7751
1	939	7752
1	1123	7753
1	1409	7754
1	1746	7755
1	2092	7756
1	2405	7757
1	2633	7758
1	2750	7759
1	2723	7760
1	2595	7761
1	2331	7762
1	1989	7763
1	1662	7764
1	1358	7765
1	1102	7766
1	900	7767
1	756	7768
1	694	7769
1	704	7770
1	769	7771
1	886	7772
1	1071	7773
1	1343	7774
1	1685	7775
1	2031	7776
1	2345	7777
1	2575	7778
1	2695	7779
1	2690	7800
1	2556	7801
1	2281	7802
1	1931	7803
1	1598	7804
1	1275	7805
1	1041	7806
1	848	7807
1	720	7808
1	672	7809
1	691	7810
1	756	7811
1	855	7812
1	1017	7813
1	1255	7814
1	1562	7815
1	1895	7816
1	2192	7817
1	2433	7818
1	2556	7819
1	2552	7800
1	2431	7801
1	2156	7802
1	1821	7803
1	1502	7804
1	1213	7805
1	972	7806
1	792	7807
1	682	7808
1	644	7809
1	665	7810
1	729	7811
1	827	7812
1	999	7813
1	1251	7814
1	1592	7815
1	1908	7816
1	2208	7817
1	2445	7818
1	2563	7819
1	2555	7840
1	2425	7841
1	2153	7842
1	1820	7843
1	1501	7844
1	1155	7845
1	945	7846
1	750	7847
1	627	7848
1	571	7849
1	571	7850
1	614	7851
1	705	7852
1	862	7853
1	1137	7854
1	1476	7855
1	1842	7856
1	2170	7857
1	2437	7858
1	2583	7859
1	2575	7820
1	2450	7821
1	2165	7822
1	1882	7823
1	1575	7824
1	1296	7825
1	1053	7826
1	859	7827
1	735	7828
1	688	7829
1	695	7830
1	749	7831
1	835	7832
1	994	7833
1	1248	7834
1	1581	7835
1	1922	7836
1	2236	7837
1	2464	7838
1	2566	7839
1	3079	7880
1	2906	7881
1	2612	7882
1	2247	7883
1	1882	7884
1	1546	7885
1	1257	7886
1	1037	7887
1	879	7888
1	790	7889
1	751	7890
1	769	7891
1	836	7892
1	985	7893
1	1230	7894
1	1555	7895
1	1897	7896
1	2210	7897
1	2470	7898
1	2599	7899
1	2603	7860
1	2518	7861
1	2292	7862
1	1998	7863
1	1713	7864
1	1472	7865
1	1265	7866
1	1123	7867
1	1052	7868
1	1044	7869
1	1096	7870
1	1197	7871
1	1335	7872
1	1536	7873
1	1809	7874
1	2148	7875
1	2476	7876
1	2762	7877
1	2990	7878
1	3106	7879
1	2606	7900
1	2496	7901
1	2231	7902
1	1896	7903
1	1574	7904
1	1249	7905
1	1013	7906
1	810	7907
1	683	7908
1	631	7909
1	643	7910
1	712	7911
1	823	7912
1	1005	7913
1	1268	7914
1	1595	7915
1	1939	7916
1	2250	7917
1	2483	7918
1	2581	7919
1	2549	7920
1	2406	7921
1	2119	7922
1	1778	7923
1	1462	7924
1	1163	7925
1	911	7926
1	727	7927
1	611	7928
1	561	7929
1	577	7930
1	639	7931
1	741	7932
1	901	7933
1	1165	7934
1	1500	7935
1	1856	7936
1	2174	7937
1	2433	7938
1	2565	7939
1	2579	7940
1	2462	7941
1	2192	7942
1	1870	7943
1	1556	7944
1	1266	7945
1	1013	7946
1	809	7947
1	678	7948
1	616	7949
1	616	7950
1	670	7951
1	769	7952
1	929	7953
1	1188	7954
1	1518	7955
1	1868	7956
1	2183	7957
1	2442	7958
1	2579	7959
1	2637	7980
1	2524	7981
1	2267	7982
1	1926	7983
1	1594	7984
1	1292	7985
1	1031	7986
1	826	7987
1	696	7988
1	636	7989
1	638	7990
1	698	7991
1	809	7992
1	981	7993
1	1241	7994
1	1590	7995
1	1908	7996
1	2219	7997
1	2469	7998
1	2596	7999
1	2599	7960
1	2500	7961
1	2255	7962
1	1924	7963
1	1605	7964
1	1280	7965
1	1050	7966
1	854	7967
1	731	7968
1	680	7969
1	691	7970
1	752	7971
1	854	7972
1	1023	7973
1	1281	7974
1	1607	7975
1	1950	7976
1	2264	7977
1	2508	7978
1	2635	7979
1	2619	8000
1	2506	8000
1	2252	8002
1	1921	8003
1	1600	8004
1	1298	8005
1	1044	8006
1	848	8007
1	724	8008
1	667	8009
1	670	8010
1	725	8011
1	828	8012
1	998	8013
1	1255	8013
1	1589	8015
1	1943	8016
1	2267	8016
1	2516	8018
1	2660	8019
1	2683	8020
1	2563	8021
1	2288	8022
1	1992	8023
1	1670	8024
1	1384	8025
1	1140	8026
1	949	8027
1	827	8028
1	769	8029
1	770	8029
1	824	8031
1	927	8032
1	1096	8032
1	1369	8034
1	1701	8035
1	2057	8036
1	2390	8037
1	2627	8038
1	2763	8039
1	2763	8040
1	2664	8041
1	2440	8042
1	2117	8043
1	1814	8044
1	1525	8045
1	1267	8045
1	1062	8047
1	918	8048
1	844	8048
1	826	8050
1	873	8051
1	970	8052
1	1131	8053
1	1383	8054
1	1751	8055
1	2052	8056
1	2377	8057
1	2623	8058
1	2772	8059
1	2808	8060
1	2716	8061
1	2503	8061
1	2183	8063
1	1881	8064
1	1591	8064
1	1333	8066
1	1136	8067
1	1006	8068
1	936	8069
1	927	8070
1	962	8071
1	1050	8072
1	1193	8073
1	1443	8074
1	1767	8074
1	2130	8076
1	2477	8077
1	2725	8077
1	2885	8079
1	2924	8080
1	2818	8080
1	2581	8082
1	2251	8083
1	1919	8084
1	1583	8085
1	1338	8086
1	1130	8087
1	990	8088
1	920	8089
1	918	8090
1	972	8090
1	1071	8092
1	1230	8093
1	1476	8093
1	1783	8095
1	2131	8096
1	2458	8096
1	2687	8098
1	2834	8099
1	2852	8100
1	2743	8101
1	2509	8102
1	2167	8103
1	1843	8104
1	1541	8105
1	1271	8106
1	1068	8106
1	927	8108
1	861	8109
1	860	8109
1	909	8111
1	1007	8112
1	1162	8113
1	1416	8114
1	1751	8115
1	2057	8116
1	2368	8117
1	2597	8118
1	2730	8119
1	2745	8120
1	2609	8121
1	2357	8122
1	2004	8122
1	1674	8124
1	1364	8125
1	1107	8125
1	895	8127
1	760	8128
1	700	8129
1	699	8130
1	751	8131
1	842	8132
1	995	8133
1	1242	8134
1	1573	8135
1	1926	8136
1	2260	8137
1	2512	8138
1	2651	8138
1	2581	8160
1	2499	8161
1	2270	8162
1	1958	8163
1	1649	8164
1	1354	8165
1	1098	8166
1	891	8167
1	757	8168
1	690	8169
1	684	8170
1	735	8170
1	828	8172
1	980	8173
1	1214	8173
1	1557	8175
1	1842	8176
1	2149	8177
1	2406	8178
1	2558	8179
1	2677	8140
1	2585	8141
1	2361	8141
1	2025	8143
1	1691	8144
1	1310	8145
1	1091	8146
1	871	8147
1	717	8148
1	637	8149
1	615	8150
1	656	8151
1	751	8152
1	906	8153
1	1157	8154
1	1476	8154
1	1827	8156
1	2153	8157
1	2417	8157
1	2562	8159
1	2675	8200
1	2579	8201
1	2345	8202
1	2011	8203
1	1682	8204
1	1346	8205
1	1110	8206
1	900	8207
1	761	8208
1	697	8209
1	697	8210
1	749	8211
1	846	8212
1	1000	8213
1	1245	8214
1	1566	8215
1	1919	8216
1	2253	8217
1	2514	8218
1	2668	8219
1	2592	8180
1	2506	8181
1	2248	8182
1	1940	8183
1	1626	8184
1	1319	8185
1	1059	8186
1	859	8186
1	733	8188
1	678	8189
1	685	8189
1	739	8191
1	843	8192
1	1007	8193
1	1260	8194
1	1582	8195
1	1924	8196
1	2247	8197
1	2503	8198
1	2646	8199
1	2696	8220
1	2597	8221
1	2363	8222
1	2019	8223
1	1688	8224
1	1384	8225
1	1128	8226
1	897	8227
1	778	8228
1	706	8229
1	696	8230
1	739	8231
1	828	8232
1	978	8233
1	1211	8234
1	1515	8235
1	1856	8236
1	2174	8237
1	2441	8238
1	2599	8239
1	2651	8240
1	2572	8241
1	2354	8242
1	2022	8243
1	1697	8244
1	1398	8245
1	1128	8246
1	910	8247
1	756	8248
1	670	8249
1	649	8250
1	684	8251
1	769	8252
1	916	8253
1	1167	8254
1	1492	8255
1	1856	8256
1	2186	8257
1	2467	8258
1	2629	8259
1	2668	8260
1	2584	8261
1	2367	8262
1	2038	8263
1	1711	8264
1	1348	8265
1	1125	8266
1	909	8267
1	765	8268
1	694	8269
1	691	8270
1	741	8271
1	828	8272
1	979	8273
1	1218	8274
1	1536	8275
1	1895	8276
1	2238	8277
1	2514	8278
1	2684	8279
1	2721	8280
1	2643	8281
1	2431	8282
1	2101	8283
1	1773	8284
1	1474	8285
1	1191	8286
1	983	8287
1	848	8288
1	794	8289
1	796	8290
1	847	8291
1	945	8292
1	1098	8293
1	1338	8294
1	1686	8295
1	1981	8296
1	2300	8297
1	2550	8298
1	2709	8299
1	2749	8300
1	2664	8301
1	2444	8302
1	2092	8303
1	1754	8304
1	1443	8305
1	1170	8306
1	952	8307
1	804	8308
1	727	8309
1	721	8310
1	769	8311
1	875	8312
1	1037	8313
1	1293	8314
1	1625	8315
1	1989	8316
1	2337	8317
1	2601	8318
1	2771	8319
1	2815	8320
1	2719	8321
1	2471	8322
1	2169	8323
1	1833	8324
1	1521	8325
1	1243	8326
1	1031	8327
1	886	8328
1	811	8329
1	796	8330
1	838	8331
1	927	8332
1	1069	8333
1	1305	8334
1	1602	8335
1	1937	8336
1	2260	8337
1	2516	8338
1	2675	8339
1	2675	8360
1	2612	8361
1	2419	8362
1	2104	8363
1	1779	8364
1	1476	8365
1	1205	8366
1	983	8367
1	816	8368
1	723	8369
1	692	8370
1	725	8371
1	815	8372
1	954	8373
1	1188	8374
1	1501	8375
1	1850	8376
1	2183	8377
1	2464	8378
1	2631	8379
1	2693	8340
1	2601	8341
1	2371	8342
1	2027	8343
1	1690	8344
1	1370	8345
1	1106	8346
1	888	8347
1	747	8348
1	678	8349
1	665	8350
1	705	8351
1	798	8352
1	942	8353
1	1180	8354
1	1542	8355
1	1839	8356
1	2167	8357
1	2446	8358
1	2619	8359
1	2668	8380
1	2579	8381
1	2351	8382
1	2021	8383
1	1679	8384
1	1357	8385
1	1076	8386
1	860	8387
1	715	8388
1	639	8389
1	629	8390
1	677	8391
1	780	8392
1	934	8393
1	1188	8394
1	1512	8395
1	1878	8396
1	2233	8397
1	2514	8398
1	2686	8399
1	2729	8400
1	2651	8401
1	2436	8402
1	2097	8403
1	1759	8404
1	1449	8405
1	1162	8406
1	929	8407
1	767	8408
1	666	8409
1	636	8410
1	662	8411
1	742	8412
1	873	8413
1	1103	8414
1	1438	8415
1	1746	8416
1	2078	8417
1	2354	8418
1	2535	8419
1	2595	8420
1	2526	8421
1	2323	8422
1	1999	8423
1	1712	8424
1	1378	8425
1	1204	8426
1	1024	8427
1	905	8428
1	860	8429
1	878	8430
1	965	8431
1	1110	8432
1	1293	8433
1	1566	8434
1	1908	8435
1	2293	8436
1	2653	8437
1	2940	8438
1	3130	8439
1	3130	8440
1	3122	8441
1	2890	8442
1	2569	8443
1	2222	8444
1	1818	8445
1	1587	8446
1	1330	8447
1	1136	8448
1	1019	8449
1	978	8450
1	990	8451
1	1042	8452
1	1131	8453
1	1310	8454
1	1567	8455
1	1872	8456
1	2178	8457
1	2440	8458
1	2594	8459
1	2625	8460
1	2546	8461
1	2327	8462
1	1991	8463
1	1657	8464
1	1346	8465
1	1075	8466
1	853	8467
1	702	8468
1	617	8469
1	603	8470
1	648	8471
1	742	8472
1	887	8473
1	1134	8474
1	1489	8475
1	1803	8476
1	2145	8477
1	2441	8478
1	2624	8479
1	2690	8480
1	2627	8481
1	2419	8482
1	2088	8483
1	1755	8484
1	1448	8485
1	1165	8486
1	946	8487
1	790	8488
1	695	8489
1	662	8490
1	691	8491
1	777	8492
1	913	8493
1	1146	8494
1	1450	8495
1	1791	8496
1	2128	8497
1	2417	8498
1	2599	8499
1	2664	8500
1	2603	8501
1	2410	8502
1	2087	8503
1	1754	8504
1	1398	8505
1	1149	8506
1	924	8507
1	768	8508
1	684	8509
1	666	8510
1	704	8511
1	790	8512
1	925	8513
1	1161	8514
1	1459	8515
1	1800	8516
1	2130	8517
1	2412	8518
1	2589	8519
1	2645	8520
1	2587	8521
1	2392	8522
1	2065	8523
1	1733	8524
1	1425	8525
1	1148	8526
1	931	8527
1	781	8528
1	699	8529
1	675	8530
1	712	8531
1	798	8532
1	931	8533
1	1157	8534
1	1498	8535
1	1791	8536
1	2127	8537
1	2408	8538
1	2589	8539
1	2654	8540
1	2596	8541
1	2410	8542
1	2102	8543
1	1783	8544
1	1485	8545
1	1214	8546
1	998	8547
1	839	8548
1	755	8549
1	733	8550
1	767	8551
1	849	8552
1	976	8553
1	1189	8554
1	1499	8555
1	1841	8556
1	2174	8557
1	2467	8558
1	2644	8559
1	2712	8560
1	2664	8561
1	2492	8562
1	2176	8563
1	1855	8564
1	1503	8565
1	1255	8566
1	1032	8567
1	874	8568
1	793	8569
1	779	8570
1	822	8571
1	911	8572
1	1042	8573
1	1255	8574
1	1543	8575
1	1886	8576
1	2220	8577
1	2504	8578
1	2684	8579
1	2744	8580
1	2683	8581
1	2493	8582
1	2169	8583
1	1857	8584
1	1549	8585
1	1266	8586
1	1036	8587
1	864	8588
1	770	8589
1	744	8590
1	782	8591
1	878	8592
1	1030	8593
1	1265	8594
1	1638	8595
1	1922	8596
1	2262	8597
1	2535	8598
1	2720	8599
1	2791	8600
1	2743	8601
1	2562	8602
1	2260	8603
1	1931	8604
1	1625	8605
1	1346	8606
1	1125	8607
1	962	8608
1	873	8609
1	850	8610
1	887	8611
1	981	8612
1	1122	8613
1	1359	8614
1	1680	8615
1	2037	8616
1	2386	8617
1	2664	8618
1	2862	8619
1	2941	8620
1	2884	8621
1	2656	8622
1	2387	8623
1	2038	8624
1	1719	8625
1	1440	8626
1	1219	8627
1	1070	8628
1	986	8629
1	965	8630
1	1013	8631
1	1102	8632
1	1235	8633
1	1461	8634
1	1757	8635
1	2106	8636
1	2458	8637
1	2725	8638
1	2919	8639
1	2989	8640
1	2924	8641
1	2719	8642
1	2418	8643
1	2079	8644
1	1770	8645
1	1502	8646
1	1287	8647
1	1142	8648
1	1071	8649
1	1065	8650
1	1116	8651
1	1213	8652
1	1341	8653
1	1557	8654
1	1899	8655
1	2170	8656
1	2503	8657
1	2763	8658
1	2947	8659
1	3010	8660
1	2949	8661
1	2742	8662
1	2431	8663
1	2070	8664
1	1738	8665
1	1445	8666
1	1204	8667
1	1031	8668
1	926	8669
1	885	8670
1	911	8671
1	993	8672
1	1112	8673
1	1327	8674
1	1629	8675
1	1975	8676
1	2323	8677
1	2602	8678
1	2799	8679
1	2876	8680
1	2824	8681
1	2630	8682
1	2322	8683
1	1975	8684
1	1656	8685
1	1369	8686
1	1133	8687
1	954	8688
1	851	8689
1	821	8690
1	848	8691
1	921	8692
1	1039	8693
1	1241	8694
1	1518	8695
1	1846	8696
1	2174	8697
1	2467	8698
1	2653	8699
1	2730	8700
1	2685	8701
1	2508	8702
1	2196	8703
1	1869	8704
1	1544	8705
1	1258	8706
1	1018	8707
1	833	8708
1	724	8709
1	690	8710
1	717	8711
1	796	8712
1	915	8713
1	1122	8714
1	1463	8715
1	1742	8716
1	2087	8717
1	2392	8718
1	2598	8719
1	2695	8720
1	2657	8721
1	2454	8722
1	2183	8723
1	1859	8724
1	1536	8725
1	1255	8726
1	1013	8727
1	833	8728
1	731	8729
1	700	8730
1	726	8731
1	800	8732
1	918	8733
1	1134	8734
1	1427	8735
1	1782	8736
1	2144	8737
1	2450	8738
1	2666	8739
1	2761	8740
1	2725	8741
1	2548	8742
1	2237	8743
1	1898	8744
1	1494	8745
1	1283	8746
1	1047	8747
1	873	8748
1	774	8749
1	744	8750
1	787	8751
1	877	8752
1	1005	8753
1	1207	8754
1	1494	8755
1	1831	8756
1	2156	8757
1	2440	8758
1	2624	8759
1	2696	8760
1	2648	8761
1	2479	8762
1	2168	8763
1	1849	8764
1	1544	8765
1	1262	8766
1	1031	8767
1	863	8768
1	773	8769
1	749	8770
1	777	8771
1	851	8772
1	962	8773
1	1161	8774
1	1481	8775
1	1767	8776
1	2106	8777
1	2408	8778
1	2617	8779
1	2711	8780
1	2684	8781
1	2515	8782
1	2210	8783
1	1877	8784
1	1560	8785
1	1274	8786
1	1040	8787
1	860	8788
1	752	8789
1	712	8790
1	736	8791
1	813	8792
1	932	8793
1	1147	8794
1	1449	8795
1	1793	8796
1	2140	8797
1	2444	8798
1	2644	8799
1	2736	8800
1	2709	8801
1	2547	8802
1	2253	8803
1	1922	8804
1	1559	8805
1	1314	8806
1	1083	8807
1	911	8808
1	810	8809
1	783	8810
1	810	8811
1	899	8812
1	1031	8813
1	1237	8814
1	1518	8815
1	1854	8816
1	2185	8817
1	2483	8818
1	2666	8819
1	2745	8820
1	2705	8821
1	2526	8822
1	2235	8823
1	1904	8824
1	1592	8825
1	1310	8826
1	1066	8827
1	891	8828
1	781	8829
1	736	8830
1	751	8831
1	823	8832
1	944	8833
1	1155	8834
1	1495	8835
1	1786	8836
1	2131	8837
1	2433	8838
1	2626	8839
1	2711	8840
1	2673	8841
1	2509	8842
1	2221	8843
1	1904	8844
1	1607	8845
1	1344	8846
1	1131	8847
1	974	8848
1	874	8849
1	846	8850
1	869	8851
1	942	8852
1	1058	8853
1	1242	8854
1	1517	8855
1	1851	8856
1	2178	8857
1	2476	8858
1	2670	8859
1	2773	8860
1	2743	8861
1	2589	8862
1	2306	8863
1	1973	8864
1	1591	8865
1	1359	8866
1	1123	8867
1	941	8868
1	827	8869
1	780	8870
1	796	8871
1	870	8872
1	990	8873
1	1190	8874
1	1481	8875
1	1831	8876
1	2179	8877
1	2495	8878
1	2698	8879
1	2800	8880
1	2764	8881
1	2597	8882
1	2311	8883
1	1984	8884
1	1673	8885
1	1390	8886
1	1150	8887
1	979	8888
1	878	8889
1	852	8890
1	878	8891
1	954	8892
1	1070	8893
1	1258	8894
1	1567	8895
1	1841	8896
1	2150	8897
1	2431	8898
1	2612	8899
1	2694	8900
1	2654	8901
1	2496	8902
1	2188	8903
1	1856	8904
1	1539	8905
1	1250	8906
1	1013	8907
1	833	8908
1	729	8909
1	690	8910
1	705	8911
1	778	8912
1	887	8913
1	1083	8914
1	1357	8915
1	1692	8916
1	2034	8917
1	2342	8918
1	2568	8919
1	2679	8940
1	2646	8941
1	2493	8942
1	2198	8943
1	1870	8944
1	1555	8945
1	1262	8946
1	1019	8947
1	843	8948
1	720	8949
1	669	8950
1	691	8951
1	772	8952
1	900	8953
1	1109	8954
1	1398	8955
1	1733	8956
1	2078	8957
1	2374	8958
1	2573	8959
1	2674	8920
1	2648	8921
1	2453	8922
1	2191	8923
1	1845	8924
1	1526	8925
1	1235	8926
1	995	8927
1	815	8928
1	715	8929
1	673	8930
1	692	8931
1	770	8932
1	888	8933
1	1088	8934
1	1370	8935
1	1709	8936
1	2058	8937
1	2369	8938
1	2581	8939
1	2661	8960
1	2643	8961
1	2497	8962
1	2210	8963
1	1888	8964
1	1580	8965
1	1296	8966
1	1068	8967
1	891	8968
1	778	8969
1	736	8970
1	748	8971
1	823	8972
1	951	8973
1	1165	8974
1	1476	8975
1	1843	8976
1	2218	8977
1	2548	8978
1	2791	8979
1	3021	9000
1	2936	9001
1	2712	9002
1	2368	9003
1	1972	9004
1	1596	9005
1	1243	9006
1	953	9007
1	743	9008
1	613	9009
1	560	9010
1	571	9011
1	633	9012
1	743	9013
1	936	9014
1	1229	9015
1	1576	9016
1	1929	9017
1	2251	9018
1	2502	9019
1	2929	8980
1	2941	8981
1	2816	8982
1	2577	8983
1	2292	8984
1	2021	8985
1	1766	8986
1	1567	8987
1	1422	8988
1	1332	8989
1	1305	8990
1	1322	8991
1	1384	8992
1	1482	8993
1	1649	8994
1	1903	8995
1	2211	8996
1	2529	8997
1	2783	8998
1	2964	8999
1	2668	9040
1	2658	9041
1	2520	9042
1	2240	9043
1	1896	9044
1	1568	9045
1	1248	9046
1	983	9047
1	778	9048
1	657	9049
1	612	9050
1	636	9051
1	715	9052
1	838	9053
1	1043	9054
1	1325	9055
1	1670	9056
1	2027	9057
1	2350	9058
1	2572	9059
1	2621	9020
1	2611	9021
1	2471	9022
1	2186	9023
1	1857	9024
1	1522	9025
1	1224	9026
1	984	9027
1	795	9028
1	690	9029
1	652	9030
1	675	9031
1	747	9032
1	863	9033
1	1062	9034
1	1346	9035
1	1685	9036
1	2032	9037
1	2330	9038
1	2551	9039
1	2673	9060
1	2644	9061
1	2494	9062
1	2186	9063
1	1845	9064
1	1508	9065
1	1225	9066
1	990	9067
1	819	9068
1	731	9069
1	716	9070
1	756	9071
1	834	9072
1	953	9073
1	1146	9074
1	1424	9075
1	1741	9076
1	2075	9077
1	2366	9078
1	2570	9079
1	2673	9080
1	2654	9081
1	2511	9082
1	2230	9083
1	1894	9084
1	1569	9085
1	1278	9086
1	1036	9087
1	855	9088
1	745	9089
1	705	9090
1	721	9091
1	793	9092
1	905	9093
1	1098	9094
1	1373	9095
1	1712	9096
1	2061	9097
1	2378	9098
1	2595	9099
1	2707	9100
1	2700	9101
1	2568	9102
1	2297	9103
1	1959	9104
1	1639	9105
1	1341	9106
1	1094	9107
1	900	9108
1	783	9109
1	740	9110
1	759	9111
1	834	9112
1	954	9113
1	1145	9114
1	1422	9115
1	1751	9116
1	2097	9117
1	2412	9118
1	2634	9119
1	2749	9120
1	2737	9121
1	2585	9122
1	2314	9123
1	1981	9124
1	1672	9125
1	1377	9126
1	1125	9127
1	931	9128
1	803	9129
1	744	9130
1	755	9131
1	813	9132
1	923	9133
1	1111	9134
1	1392	9135
1	1725	9136
1	2077	9137
1	2398	9138
1	2633	9139
1	2764	9140
1	2762	9141
1	2622	9142
1	2358	9143
1	2022	9144
1	1707	9145
1	1424	9146
1	1178	9147
1	997	9148
1	878	9149
1	839	9150
1	860	9151
1	937	9152
1	1065	9153
1	1259	9154
1	1542	9155
1	1890	9156
1	2251	9157
1	2571	9158
1	2808	9159
1	2934	9160
1	2926	9161
1	2773	9162
1	2504	9163
1	2156	9164
1	1833	9165
1	1536	9166
1	1287	9167
1	1104	9168
1	996	9169
1	952	9170
1	975	9171
1	1044	9172
1	1146	9173
1	1319	9174
1	1589	9175
1	1926	9176
1	2286	9177
1	2598	9178
1	2835	9179
1	2960	9180
1	2946	9181
1	2789	9182
1	2524	9183
1	2199	9184
1	1898	9185
1	1618	9186
1	1380	9187
1	1194	9188
1	1073	9189
1	1019	9190
1	1029	9191
1	1093	9192
1	1207	9193
1	1391	9194
1	1660	9195
1	1974	9196
1	2317	9197
1	2622	9198
1	2852	9199
1	2977	9200
1	2964	9201
1	2818	9202
1	2549	9203
1	2209	9204
1	1886	9205
1	1584	9206
1	1330	9207
1	1140	9208
1	1026	9209
1	977	9210
1	977	9211
1	1031	9212
1	1135	9213
1	1305	9214
1	1568	9215
1	1895	9216
1	2238	9217
1	2538	9218
1	2756	9219
1	2876	9220
1	2861	9221
1	2666	9222
1	2435	9223
1	2071	9224
1	1744	9225
1	1449	9226
1	1192	9227
1	998	9228
1	872	9229
1	810	9230
1	815	9231
1	873	9232
1	972	9233
1	1137	9234
1	1384	9235
1	1701	9236
1	2044	9237
1	2368	9238
1	2604	9239
1	2745	9240
1	2753	9241
1	2631	9242
1	2372	9243
1	2039	9244
1	1712	9245
1	1419	9246
1	1162	9247
1	955	9248
1	816	9249
1	743	9250
1	731	9251
1	769	9252
1	861	9253
1	1024	9254
1	1284	9255
1	1598	9256
1	1936	9257
1	2248	9258
1	2494	9259
1	2611	9260
1	2629	9261
1	2515	9262
1	2263	9263
1	1939	9264
1	1625	9265
1	1328	9266
1	1077	9267
1	875	9268
1	749	9269
1	693	9270
1	690	9271
1	736	9272
1	828	9273
1	1000	9274
1	1260	9275
1	1594	9276
1	1948	9277
1	2273	9278
1	2515	9279
1	2606	9300
1	2619	9301
1	2511	9302
1	2262	9303
1	1932	9304
1	1621	9305
1	1323	9306
1	1071	9307
1	874	9308
1	754	9309
1	702	9310
1	711	9311
1	774	9312
1	873	9313
1	1037	9314
1	1304	9315
1	1620	9316
1	1973	9317
1	2300	9318
1	2545	9319
1	2644	9280
1	2654	9281
1	2535	9282
1	2271	9283
1	1933	9284
1	1602	9285
1	1298	9286
1	1041	9287
1	843	9288
1	717	9289
1	663	9290
1	669	9291
1	727	9292
1	823	9293
1	993	9294
1	1245	9295
1	1567	9296
1	1911	9297
1	2218	9298
1	2471	9299
1	2685	9320
1	2692	9321
1	2527	9322
1	2312	9323
1	1962	9324
1	1634	9325
1	1338	9326
1	1081	9327
1	883	9328
1	756	9329
1	693	9330
1	693	9331
1	751	9332
1	859	9333
1	1032	9334
1	1297	9335
1	1634	9336
1	1992	9337
1	2314	9338
1	2548	9339
1	2675	9340
1	2685	9341
1	2568	9342
1	2314	9343
1	1979	9344
1	1655	9345
1	1358	9346
1	1104	9347
1	904	9348
1	773	9349
1	718	9350
1	730	9351
1	797	9352
1	905	9353
1	1084	9354
1	1338	9355
1	1661	9356
1	2011	9357
1	2329	9358
1	2569	9359
1	2710	9360
1	2717	9361
1	2604	9362
1	2367	9363
1	2030	9364
1	1701	9365
1	1424	9366
1	1164	9367
1	963	9368
1	834	9369
1	778	9370
1	782	9371
1	830	9372
1	918	9373
1	1072	9374
1	1328	9375
1	1634	9376
1	1976	9377
1	2299	9378
1	2546	9379
1	2698	9380
1	2725	9381
1	2632	9382
1	2415	9383
1	2088	9384
1	1772	9385
1	1476	9386
1	1215	9387
1	1019	9388
1	887	9389
1	824	9390
1	817	9391
1	861	9392
1	953	9393
1	1110	9394
1	1359	9395
1	1674	9396
1	2015	9397
1	2340	9398
1	2583	9399
1	2727	9400
1	2741	9401
1	2621	9402
1	2363	9403
1	2006	9404
1	1661	9405
1	1359	9406
1	1105	9407
1	901	9408
1	770	9409
1	713	9410
1	708	9411
1	752	9412
1	842	9413
1	995	9414
1	1241	9415
1	1561	9416
1	1913	9417
1	2234	9418
1	2479	9419
1	2602	9420
1	2601	9421
1	2492	9422
1	2236	9423
1	1904	9424
1	1586	9425
1	1319	9426
1	1080	9427
1	900	9428
1	778	9429
1	724	9430
1	729	9431
1	783	9432
1	884	9433
1	1044	9434
1	1289	9435
1	1602	9436
1	1944	9437
1	2262	9438
1	2513	9439
1	2653	9440
1	2664	9441
1	2543	9442
1	2292	9443
1	1960	9444
1	1629	9445
1	1314	9446
1	1044	9447
1	834	9448
1	700	9449
1	636	9450
1	629	9451
1	682	9452
1	782	9453
1	944	9454
1	1214	9455
1	1541	9456
1	1895	9457
1	2221	9458
1	2484	9459
1	2623	9460
1	2653	9461
1	2555	9462
1	2319	9463
1	1988	9464
1	1660	9465
1	1348	9466
1	1083	9467
1	874	9468
1	736	9469
1	676	9470
1	672	9471
1	718	9472
1	811	9473
1	962	9474
1	1210	9475
1	1524	9476
1	1871	9477
1	2196	9478
1	2458	9479
1	2688	9500
1	2730	9501
1	2648	9502
1	2446	9503
1	2132	9504
1	1844	9505
1	1584	9506
1	1361	9507
1	1196	9508
1	1089	9509
1	1053	9510
1	1066	9511
1	1130	9512
1	1228	9513
1	1361	9514
1	1590	9515
1	1876	9516
1	2192	9517
1	2496	9518
1	2706	9519
1	2602	9480
1	2619	9481
1	2511	9482
1	2265	9483
1	1930	9484
1	1611	9485
1	1303	9486
1	1031	9487
1	812	9488
1	668	9489
1	601	9490
1	599	9491
1	652	9492
1	760	9493
1	934	9494
1	1211	9495
1	1529	9496
1	1894	9497
1	2238	9498
1	2526	9499
1	2830	9520
1	2818	9521
1	2634	9522
1	2408	9523
1	2019	9524
1	1649	9525
1	1293	9526
1	986	9527
1	738	9528
1	564	9529
1	463	9530
1	442	9531
1	484	9532
1	583	9533
1	743	9534
1	1005	9535
1	1337	9536
1	1710	9537
1	2057	9538
1	2343	9539
1	2528	9540
1	2573	9541
1	2503	9542
1	2278	9543
1	1956	9544
1	1634	9545
1	1346	9546
1	1082	9547
1	867	9548
1	721	9549
1	652	9550
1	644	9551
1	691	9552
1	788	9553
1	940	9554
1	1197	9555
1	1513	9556
1	1865	9557
1	2188	9558
1	2453	9559
1	2608	9560
1	2646	9561
1	2557	9562
1	2327	9563
1	1989	9564
1	1655	9565
1	1341	9566
1	1066	9567
1	851	9568
1	706	9569
1	639	9570
1	626	9571
1	672	9572
1	769	9573
1	926	9574
1	1189	9575
1	1521	9576
1	1881	9577
1	2215	9578
1	2492	9579
1	2654	9580
1	2699	9581
1	2623	9582
1	2408	9583
1	2075	9584
1	1742	9585
1	1438	9586
1	1163	9587
1	949	9588
1	801	9589
1	735	9590
1	721	9591
1	769	9592
1	864	9593
1	1017	9594
1	1259	9595
1	1571	9596
1	1913	9597
1	2234	9598
1	2494	9599
1	2640	9600
1	2664	9601
1	2573	9602
1	2354	9603
1	2021	9604
1	1698	9605
1	1391	9606
1	1116	9607
1	905	9608
1	769	9609
1	700	9610
1	693	9611
1	743	9612
1	841	9613
1	990	9614
1	1227	9615
1	1529	9616
1	1877	9617
1	2207	9618
1	2488	9619
1	2657	9620
1	2706	9621
1	2633	9622
1	2423	9623
1	2106	9624
1	1772	9625
1	1488	9626
1	1216	9627
1	1009	9628
1	860	9629
1	782	9630
1	766	9631
1	801	9632
1	880	9633
1	1017	9634
1	1241	9635
1	1541	9636
1	1873	9637
1	2183	9638
1	2458	9639
1	2621	9640
1	2664	9641
1	2587	9642
1	2375	9643
1	2049	9644
1	1730	9645
1	1432	9646
1	1173	9647
1	963	9648
1	822	9649
1	746	9650
1	743	9651
1	793	9652
1	889	9653
1	1044	9654
1	1288	9655
1	1607	9656
1	1970	9657
1	2318	9658
1	2592	9659
1	2829	9680
1	2871	9681
1	2787	9682
1	2574	9683
1	2260	9684
1	1933	9685
1	1625	9686
1	1346	9687
1	1123	9688
1	965	9689
1	887	9690
1	876	9691
1	947	9692
1	1069	9693
1	1233	9694
1	1498	9695
1	1821	9696
1	2174	9697
1	2516	9698
1	2775	9699
1	2765	9660
1	2808	9661
1	2726	9662
1	2520	9663
1	2208	9664
1	1905	9665
1	1608	9666
1	1346	9667
1	1136	9668
1	986	9669
1	901	9670
1	891	9671
1	927	9672
1	1014	9673
1	1150	9674
1	1384	9675
1	1696	9676
1	2052	9677
1	2398	9678
1	2666	9679
1	2949	9700
1	2993	9701
1	2897	9702
1	2665	9703
1	2333	9704
1	1989	9705
1	1674	9706
1	1417	9707
1	1215	9708
1	1085	9709
1	1034	9710
1	1044	9711
1	1101	9712
1	1197	9713
1	1332	9714
1	1556	9715
1	1847	9716
1	2173	9717
1	2496	9718
1	2737	9719
1	2901	9720
1	2944	9721
1	2851	9722
1	2620	9723
1	2287	9724
1	1947	9725
1	1643	9726
1	1383	9727
1	1189	9728
1	1072	9729
1	1016	9730
1	1005	9731
1	1058	9732
1	1148	9733
1	1283	9734
1	1508	9735
1	1814	9736
1	2140	9737
1	2467	9738
1	2699	9739
1	2880	9740
1	2915	9741
1	2818	9742
1	2592	9743
1	2264	9744
1	1926	9745
1	1614	9746
1	1332	9747
1	1104	9748
1	938	9749
1	846	9750
1	812	9751
1	841	9752
1	927	9753
1	1060	9754
1	1291	9755
1	1594	9756
1	1948	9757
1	2275	9758
1	2543	9759
1	2709	9760
1	2758	9761
1	2678	9762
1	2470	9763
1	2124	9764
1	1782	9765
1	1453	9766
1	1159	9767
1	922	9768
1	764	9769
1	679	9770
1	665	9771
1	709	9772
1	802	9773
1	951	9774
1	1194	9775
1	1511	9776
1	1867	9777
1	2206	9778
1	2501	9779
1	2666	9780
1	2724	9781
1	2661	9782
1	2475	9783
1	2155	9784
1	1837	9785
1	1523	9786
1	1232	9787
1	990	9788
1	809	9789
1	717	9790
1	692	9791
1	726	9792
1	811	9793
1	943	9794
1	1167	9795
1	1456	9796
1	1798	9797
1	2135	9798
1	2422	9799
1	2606	9800
1	2672	9801
1	2617	9802
1	2423	9803
1	2105	9804
1	1782	9805
1	1481	9806
1	1210	9807
1	990	9808
1	833	9809
1	749	9810
1	729	9811
1	769	9812
1	850	9813
1	981	9814
1	1201	9815
1	1497	9816
1	1841	9817
1	2170	9818
1	2449	9819
1	2645	9840
1	2692	9841
1	2623	9842
1	2435	9843
1	2125	9844
1	1809	9845
1	1513	9846
1	1236	9847
1	1016	9848
1	849	9849
1	767	9850
1	747	9851
1	794	9852
1	891	9853
1	1037	9854
1	1271	9855
1	1571	9856
1	1912	9857
1	2248	9858
1	2521	9859
1	2624	9840
1	2684	9841
1	2591	9842
1	2445	9843
1	2131	9844
1	1822	9845
1	1523	9846
1	1252	9847
1	1026	9848
1	862	9849
1	765	9850
1	735	9851
1	768	9852
1	848	9853
1	986	9854
1	1206	9855
1	1503	9856
1	1855	9857
1	2188	9858
1	2480	9859
1	2698	9860
1	2755	9861
1	2690	9862
1	2501	9863
1	2172	9864
1	1846	9865
1	1538	9866
1	1260	9867
1	1040	9868
1	874	9869
1	784	9870
1	754	9871
1	787	9872
1	875	9873
1	1018	9874
1	1253	9875
1	1560	9876
1	1915	9877
1	2262	9878
1	2545	9879
1	2735	9880
1	2801	9881
1	2744	9882
1	2558	9883
1	2249	9884
1	1914	9885
1	1596	9886
1	1307	9887
1	1078	9888
1	910	9889
1	813	9890
1	783	9891
1	808	9892
1	887	9893
1	1016	9894
1	1225	9895
1	1516	9896
1	1856	9897
1	2184	9898
1	2473	9899
1	2655	9900
1	2730	9901
1	2685	9902
1	2509	9903
1	2202	9904
1	1884	9905
1	1573	9906
1	1287	9907
1	1058	9908
1	891	9909
1	793	9910
1	758	9911
1	783	9912
1	857	9913
1	977	9914
1	1185	9915
1	1462	9916
1	1791	9917
1	2117	9918
1	2393	9919
1	2562	9920
1	2621	9921
1	2546	9922
1	2342	9923
1	2039	9924
1	1699	9925
1	1401	9926
1	1130	9927
1	900	9928
1	751	9929
1	679	9930
1	675	9931
1	729	9932
1	832	9933
1	980	9934
1	1212	9935
1	1515	9936
1	1865	9937
1	2196	9938
1	2500	9939
1	2681	9940
1	2745	9941
1	2685	9942
1	2500	9943
1	2170	9944
1	1828	9945
1	1494	9946
1	1200	9947
1	958	9948
1	790	9949
1	687	9950
1	660	9951
1	682	9952
1	747	9953
1	857	9954
1	1063	9955
1	1346	9956
1	1690	9957
1	2032	9958
1	2320	9959
1	2519	9960
1	2585	9961
1	2545	9962
1	2372	9963
1	2079	9964
1	1768	9965
1	1476	9966
1	1210	9967
1	993	9968
1	833	9969
1	749	9970
1	729	9971
1	769	9972
1	848	9973
1	959	9974
1	1161	9975
1	1437	9976
1	1769	9977
1	2103	9978
1	2387	9979
1	2579	9980
1	2642	9981
1	2581	9982
1	2409	9983
1	2088	9984
1	1746	9985
1	1422	9986
1	1121	9987
1	876	9988
1	709	9989
1	623	9990
1	610	9991
1	663	9992
1	773	9993
1	935	9994
1	1188	9995
1	1521	9996
1	1900	9997
1	2284	9998
1	2602	9999
1	2844	10000
1	2975	10001
1	2975	10002
1	2825	10003
1	2556	10004
1	2240	10005
1	1922	10006
1	1634	10007
1	1384	10008
1	1198	10009
1	1071	10010
1	1015	10011
1	1009	10012
1	1056	10013
1	1139	10014
1	1319	10015
1	1581	10016
1	1894	10017
1	2197	10018
1	2458	10019
1	2607	10020
1	2645	10021
1	2571	10022
1	2377	10023
1	2062	10024
1	1730	10025
1	1428	10026
1	1143	10027
1	914	10028
1	737	10029
1	648	10030
1	611	10031
1	634	10032
1	717	10033
1	852	10034
1	1081	10035
1	1375	10036
1	1718	10037
1	2061	10038
1	2354	10039
1	2556	10040
1	2630	10041
1	2581	10042
1	2415	10043
1	2105	10044
1	1764	10045
1	1445	10046
1	1148	10047
1	902	10048
1	729	10049
1	626	10050
1	598	10051
1	637	10052
1	734	10053
1	875	10054
1	1111	10055
1	1424	10056
1	1778	10057
1	2130	10058
1	2432	10059
1	2626	10060
1	2710	10061
1	2672	10062
1	2502	10063
1	2188	10064
1	1856	10065
1	1529	10066
1	1235	10067
1	1003	10068
1	829	10069
1	744	10070
1	720	10071
1	747	10072
1	827	10073
1	950	10074
1	1158	10075
1	1440	10076
1	1775	10077
1	2110	10078
1	2398	10079
1	2596	10080
1	2667	10081
1	2623	10082
1	2454	10083
1	2145	10084
1	1827	10085
1	1521	10086
1	1241	10087
1	1017	10088
1	852	10089
1	762	10090
1	732	10091
1	767	10092
1	850	10093
1	980	10094
1	1193	10095
1	1484	10096
1	1818	10097
1	2150	10098
1	2444	10099
1	2634	10100
1	2710	10101
1	2667	10102
1	2508	10103
1	2209	10104
1	1881	10105
1	1564	10106
1	1267	10107
1	1022	10108
1	837	10109
1	727	10110
1	682	10111
1	703	10112
1	778	10113
1	896	10114
1	1110	10115
1	1402	10116
1	1751	10117
1	2106	10118
1	2418	10119
1	2624	10120
1	2714	10121
1	2644	10122
1	2509	10123
1	2201	10124
1	1868	10125
1	1552	10126
1	1263	10127
1	1027	10128
1	852	10129
1	746	10130
1	715	10131
1	740	10132
1	808	10133
1	916	10134
1	1116	10135
1	1409	10136
1	1752	10137
1	2104	10138
1	2408	10139
1	2612	10140
1	2696	10141
1	2662	10142
1	2506	10143
1	2210	10144
1	1891	10145
1	1602	10146
1	1333	10147
1	1110	10148
1	944	10149
1	853	10150
1	827	10151
1	854	10152
1	931	10153
1	1053	10154
1	1246	10155
1	1513	10156
1	1841	10157
1	2166	10158
1	2461	10159
1	2664	10160
1	2757	10161
1	2737	10162
1	2585	10163
1	2306	10164
1	1978	10165
1	1668	10166
1	1384	10167
1	1158	10168
1	998	10169
1	905	10170
1	874	10171
1	900	10172
1	977	10173
1	1086	10174
1	1288	10175
1	1574	10176
1	1922	10177
1	2283	10178
1	2585	10179
1	2816	10180
1	2927	10181
1	2903	10182
1	2737	10183
1	2456	10184
1	2105	10185
1	1780	10186
1	1489	10187
1	1241	10188
1	1055	10189
1	931	10190
1	877	10191
1	887	10192
1	954	10193
1	1076	10194
1	1273	10195
1	1563	10196
1	1915	10197
1	2278	10198
1	2585	10199
1	2810	10200
1	2924	10201
1	2904	10202
1	2748	10203
1	2484	10204
1	2154	10205
1	1850	10206
1	1570	10207
1	1333	10208
1	1157	10209
1	1045	10210
1	1004	10211
1	1022	10212
1	1097	10213
1	1211	10214
1	1412	10215
1	1683	10216
1	2013	10217
1	2345	10218
1	2617	10219
1	2810	10220
1	2888	10221
1	2844	10222
1	2675	10223
1	2402	10224
1	2050	10225
1	1724	10226
1	1456	10227
1	1218	10228
1	1058	10229
1	955	10230
1	919	10231
1	939	10232
1	1015	10233
1	1125	10234
1	1314	10235
1	1576	10236
1	1898	10237
1	2232	10238
1	2523	10239
1	2725	10240
1	2818	10241
1	2783	10242
1	2621	10243
1	2330	10244
1	1987	10245
1	1657	10246
1	1359	10247
1	1105	10248
1	902	10249
1	777	10250
1	730	10251
1	746	10252
1	818	10253
1	924	10254
1	1112	10255
1	1381	10256
1	1711	10257
1	2052	10258
1	2359	10259
1	2583	10260
1	2694	10261
1	2682	10262
1	2538	10263
1	2262	10264
1	1934	10265
1	1607	10266
1	1304	10267
1	1049	10268
1	856	10269
1	741	10270
1	691	10271
1	706	10272
1	769	10273
1	878	10274
1	1072	10275
1	1341	10276
1	1678	10277
1	2025	10278
1	2332	10279
1	2570	10280
1	2682	10281
1	2664	10282
1	2533	10283
1	2262	10284
1	1932	10285
1	1613	10286
1	1318	10287
1	1071	10288
1	885	10289
1	775	10290
1	730	10291
1	738	10292
1	793	10293
1	886	10294
