#Date:= 2024-10-01T15:22:47.495165
#Sampling Rate(Hz):= 1000
#Labels:= LOD	ECG	TS
1	1498	20
1	1710	21
1	1704	22
1	1697	23
1	1693	24
1	1687	25
1	1682	26
1	1679	27
1	1684	28
1	1697	29
1	1713	30
1	1737	31
1	1757	32
1	1785	33
1	1813	34
1	1831	35
1	1835	36
1	1828	37
1	1813	38
1	1789	39
1	1764	40
1	1739	41
1	1710	42
1	1679	43
1	1651	44
1	1621	45
1	1607	46
1	1598	47
1	1594	48
1	1607	49
1	1635	50
1	1660	51
1	1672	52
1	1701	53
1	1728	54
1	1752	55
1	1770	56
1	1777	57
1	1775	58
1	1764	59
1	1749	60
1	1734	61
1	1718	62
1	1700	63
1	1686	64
1	1671	65
1	1659	66
1	1659	67
1	1668	68
1	1687	69
1	1704	70
1	1717	71
1	1726	72
1	1728	73
1	1727	74
1	1712	75
1	1704	76
1	1687	77
1	1670	78
1	1649	79
1	1623	80
1	1592	81
1	1559	82
1	1531	83
1	1509	84
1	1498	85
1	1491	86
1	1489	87
1	1492	88
1	1505	89
1	1528	90
1	1557	91
1	1603	92
1	1652	93
1	1702	94
1	1752	95
1	1789	96
1	1814	97
1	1821	98
1	1818	99
1	1791	100
1	1760	101
1	1723	102
1	1685	103
1	1652	104
1	1621	105
1	1599	106
1	1589	107
1	1589	108
1	1597	109
1	1610	110
1	1625	111
1	1641	112
1	1658	113
1	1675	114
1	1688	115
1	1698	116
1	1693	117
1	1680	118
1	1662	119
1	1636	120
1	1611	121
1	1585	122
1	1563	123
1	1556	124
1	1575	125
1	1600	126
1	1629	127
1	1662	128
1	1686	129
1	1701	130
1	1712	131
1	1721	132
1	1737	133
1	1751	134
1	1760	135
1	1764	136
1	1760	137
1	1749	138
1	1736	139
1	1716	140
1	1700	141
1	1686	142
1	1686	143
1	1696	144
1	1712	145
1	1739	146
1	1773	147
1	1817	148
1	1865	149
1	1907	150
1	1961	151
1	2013	152
1	2067	153
1	2128	154
1	2184	155
1	2233	156
1	2261	157
1	2266	158
1	2256	159
1	2217	160
1	2172	161
1	2127	162
1	2079	163
1	2026	164
1	1965	165
1	1911	166
1	1867	167
1	1822	168
1	1777	169
1	1742	170
1	1710	171
1	1676	172
1	1646	173
1	1619	174
1	1592	175
1	1566	176
1	1542	177
1	1515	178
1	1481	179
1	1442	180
1	1413	181
1	1384	182
1	1371	183
1	1368	184
1	1375	185
1	1398	186
1	1418	187
1	1435	188
1	1450	189
1	1475	190
1	1499	191
1	1521	192
1	1542	193
1	1557	194
1	1566	195
1	1577	196
1	1587	197
1	1598	198
1	1605	199
1	1611	200
1	1615	201
1	1613	202
1	1609	203
1	1607	204
1	1612	205
1	1629	206
1	1644	207
1	1661	208
1	1686	209
1	1711	210
1	1739	211
1	1769	212
1	1799	213
1	1822	214
1	1831	215
1	1823	216
1	1811	217
1	1791	218
1	1764	219
1	1735	220
1	1695	221
1	1654	222
1	1599	223
1	1557	224
1	1527	225
1	1503	226
1	1485	227
1	1476	228
1	1486	229
1	1499	230
1	1514	231
1	1533	232
1	1558	233
1	1594	234
1	1627	235
1	1655	236
1	1674	237
1	1685	238
1	1684	239
1	1674	240
1	1667	241
1	1669	242
1	1665	243
1	1661	244
1	1662	245
1	1665	246
1	1681	247
1	1703	248
1	1738	249
1	1773	250
1	1809	251
1	1837	252
1	1858	253
1	1867	254
1	1866	255
1	1852	256
1	1831	257
1	1808	258
1	1769	259
1	1731	260
1	1693	261
1	1657	262
1	1629	263
1	1606	264
1	1581	265
1	1561	266
1	1546	267
1	1538	268
1	1536	269
1	1539	270
1	1554	271
1	1578	272
1	1608	273
1	1646	274
1	1678	275
1	1700	276
1	1719	277
1	1733	278
1	1733	279
1	1725	280
1	1711	281
1	1688	282
1	1670	283
1	1652	284
1	1631	285
1	1610	286
1	1608	287
1	1618	288
1	1639	289
1	1667	290
1	1695	291
1	1723	292
1	1754	293
1	1783	294
1	1801	295
1	1812	296
1	1799	297
1	1779	298
1	1749	299
1	1710	300
1	1683	301
1	1660	302
1	1645	303
1	1634	304
1	1632	305
1	1634	306
1	1647	307
1	1669	308
1	1697	309
1	1731	310
1	1764	311
1	1803	312
1	1839	313
1	1856	314
1	1862	315
1	1864	316
1	1860	317
1	1852	318
1	1838	319
1	1814	320
1	1774	321
1	1738	322
1	1699	323
1	1662	324
1	1635	325
1	1618	326
1	1615	327
1	1625	328
1	1648	329
1	1675	330
1	1702	331
1	1721	332
1	1736	333
1	1746	334
1	1750	335
1	1754	336
1	1764	337
1	1767	338
1	1770	339
1	1818	360
1	1799	361
1	1773	362
1	1742	363
1	1723	364
1	1710	365
1	1693	366
1	1687	367
1	1701	368
1	1731	369
1	1764	370
1	1798	371
1	1832	372
1	1860	373
1	1885	374
1	1894	375
1	1896	376
1	1893	377
1	1878	378
1	1867	379
1	1854	380
1	1842	381
1	1828	382
1	1815	383
1	1794	384
1	1781	385
1	1769	386
1	1765	387
1	1772	388
1	1782	389
1	1792	390
1	1817	391
1	1837	392
1	1856	393
1	1870	394
1	1887	395
1	1898	396
1	1907	397
1	1908	398
1	1907	399
1	1770	340
1	1773	341
1	1782	342
1	1788	343
1	1791	344
1	1788	345
1	1783	346
1	1787	347
1	1791	348
1	1803	349
1	1826	350
1	1841	351
1	1843	352
1	1856	353
1	1857	354
1	1859	355
1	1859	356
1	1855	357
1	1847	358
1	1838	359
1	1905	400
1	1904	401
1	1895	402
1	1887	403
1	1874	404
1	1859	405
1	1854	406
1	1858	407
1	1865	408
1	1870	409
1	1879	410
1	1886	411
1	1890	412
1	1895	413
1	1893	414
1	1883	415
1	1875	416
1	1865	417
1	1849	418
1	1827	419
1	1791	420
1	1763	421
1	1741	422
1	1731	423
1	1736	424
1	1742	425
1	1752	426
1	1757	427
1	1769	428
1	1775	429
1	1785	430
1	1796	431
1	1815	432
1	1829	433
1	1841	434
1	1837	435
1	1827	436
1	1803	437
1	1778	438
1	1751	439
1	1715	440
1	1687	441
1	1662	442
1	1647	443
1	1629	444
1	1610	445
1	1600	446
1	1596	447
1	1607	448
1	1628	449
1	1644	450
1	1666	451
1	1686	452
1	1712	453
1	1730	454
1	1739	455
1	1742	456
1	1738	457
1	1728	458
1	1708	459
1	1682	460
1	1647	461
1	1619	462
1	1596	463
1	1585	464
1	1580	465
1	1580	466
1	1587	467
1	1596	468
1	1610	469
1	1629	470
1	1635	471
1	1642	472
1	1644	473
1	1643	474
1	1643	475
1	1644	476
1	1645	477
1	1639	478
1	1630	479
1	1611	480
1	1602	481
1	1598	482
1	1594	483
1	1592	484
1	1590	485
1	1586	486
1	1593	487
1	1606	488
1	1621	489
1	1634	490
1	1643	491
1	1648	492
1	1656	493
1	1664	494
1	1665	495
1	1670	496
1	1669	497
1	1661	498
1	1651	499
1	1643	500
1	1623	501
1	1603	502
1	1580	503
1	1558	504
1	1539	505
1	1527	506
1	1525	507
1	1529	508
1	1541	509
1	1556	510
1	1581	511
1	1605	512
1	1629	513
1	1652	514
1	1680	515
1	1698	516
1	1708	517
1	1709	518
1	1699	519
1	1691	520
1	1686	521
1	1682	522
1	1662	523
1	1647	524
1	1633	525
1	1620	526
1	1613	527
1	1609	528
1	1611	529
1	1621	530
1	1634	531
1	1654	532
1	1668	533
1	1685	534
1	1688	535
1	1686	536
1	1674	537
1	1651	538
1	1625	539
1	1595	540
1	1578	541
1	1559	542
1	1542	543
1	1529	544
1	1529	545
1	1523	546
1	1522	547
1	1533	548
1	1555	549
1	1581	550
1	1612	551
1	1636	552
1	1659	553
1	1683	554
1	1705	555
1	1724	556
1	1733	557
1	1728	558
1	1707	559
1	1683	560
1	1652	561
1	1625	562
1	1605	563
1	1593	564
1	1586	565
1	1580	566
1	1580	567
1	1577	568
1	1581	569
1	1589	570
1	1608	571
1	1632	572
1	1652	573
1	1672	574
1	1698	575
1	1705	576
1	1700	577
1	1688	578
1	1674	579
1	1656	580
1	1632	581
1	1607	582
1	1581	583
1	1558	584
1	1543	585
1	1539	586
1	1544	587
1	1561	588
1	1585	589
1	1620	590
1	1647	591
1	1673	592
1	1696	593
1	1715	594
1	1731	595
1	1748	596
1	1761	597
1	1764	598
1	1757	599
1	1740	600
1	1724	601
1	1708	602
1	1692	603
1	1683	604
1	1679	605
1	1670	606
1	1662	607
1	1668	608
1	1679	609
1	1688	610
1	1701	611
1	1711	612
1	1726	613
1	1741	614
1	1744	615
1	1741	616
1	1727	617
1	1703	618
1	1677	619
1	1656	620
1	1629	621
1	1607	622
1	1583	623
1	1582	624
1	1581	625
1	1593	626
1	1607	627
1	1623	628
1	1636	629
1	1647	630
1	1660	631
1	1667	632
1	1680	633
1	1689	634
1	1697	635
1	1697	636
1	1688	637
1	1673	638
1	1660	639
1	1649	640
1	1641	641
1	1632	642
1	1617	643
1	1610	644
1	1607	645
1	1613	646
1	1629	647
1	1638	648
1	1651	649
1	1674	650
1	1686	651
1	1694	652
1	1708	653
1	1716	654
1	1728	655
1	1738	656
1	1739	657
1	1734	658
1	1717	659
1	1637	680
1	1586	681
1	1542	682
1	1503	683
1	1477	684
1	1472	685
1	1481	686
1	1505	687
1	1549	688
1	1603	689
1	1655	690
1	1708	691
1	1755	692
1	1795	693
1	1827	694
1	1856	695
1	1863	696
1	1863	697
1	1850	698
1	1829	699
1	1688	660
1	1656	661
1	1620	662
1	1581	663
1	1551	664
1	1535	665
1	1529	666
1	1542	667
1	1561	668
1	1594	669
1	1634	670
1	1668	671
1	1705	672
1	1739	673
1	1764	674
1	1772	675
1	1772	676
1	1754	677
1	1721	678
1	1679	679
1	1791	700
1	1754	701
1	1717	702
1	1684	703
1	1655	704
1	1626	705
1	1608	706
1	1601	707
1	1605	708
1	1612	709
1	1638	710
1	1660	711
1	1684	712
1	1699	713
1	1708	714
1	1710	715
1	1705	716
1	1699	717
1	1690	718
1	1681	719
1	1660	720
1	1645	721
1	1633	722
1	1625	723
1	1620	724
1	1615	725
1	1605	726
1	1587	727
1	1586	728
1	1590	729
1	1606	730
1	1629	731
1	1649	732
1	1677	733
1	1701	734
1	1719	735
1	1738	736
1	1757	737
1	1764	738
1	1763	739
1	1750	740
1	1726	741
1	1710	742
1	1697	743
1	1677	744
1	1659	745
1	1639	746
1	1631	747
1	1625	748
1	1634	749
1	1643	750
1	1661	751
1	1683	752
1	1700	753
1	1717	754
1	1738	755
1	1743	756
1	1737	757
1	1713	758
1	1686	759
1	1660	760
1	1632	761
1	1603	762
1	1581	763
1	1565	764
1	1554	765
1	1551	766
1	1553	767
1	1556	768
1	1566	769
1	1585	770
1	1607	771
1	1631	772
1	1655	773
1	1673	774
1	1683	775
1	1686	776
1	1683	777
1	1674	778
1	1660	779
1	1642	780
1	1632	781
1	1634	782
1	1636	783
1	1643	784
1	1652	785
1	1652	786
1	1652	787
1	1652	788
1	1651	789
1	1646	790
1	1639	791
1	1634	792
1	1629	793
1	1628	794
1	1629	795
1	1646	796
1	1674	797
1	1704	798
1	1721	799
1	1736	800
1	1729	801
1	1716	802
1	1698	803
1	1679	804
1	1667	805
1	1665	806
1	1672	807
1	1680	808
1	1688	809
1	1698	810
1	1712	811
1	1733	812
1	1753	813
1	1764	814
1	1773	815
1	1768	816
1	1764	817
1	1760	818
1	1747	819
1	1731	820
1	1710	821
1	1683	822
1	1647	823
1	1616	824
1	1593	825
1	1582	826
1	1584	827
1	1594	828
1	1607	829
1	1624	830
1	1634	831
1	1654	832
1	1679	833
1	1710	834
1	1733	835
1	1753	836
1	1763	837
1	1760	838
1	1744	839
1	1714	840
1	1686	841
1	1652	842
1	1615	843
1	1581	844
1	1562	845
1	1541	846
1	1529	847
1	1538	848
1	1566	849
1	1606	850
1	1645	851
1	1672	852
1	1697	853
1	1718	854
1	1734	855
1	1744	856
1	1751	857
1	1750	858
1	1738	859
1	1735	860
1	1724	861
1	1713	862
1	1703	863
1	1692	864
1	1686	865
1	1688	866
1	1693	867
1	1697	868
1	1702	869
1	1710	870
1	1728	871
1	1739	872
1	1752	873
1	1763	874
1	1777	875
1	1780	876
1	1769	877
1	1743	878
1	1710	879
1	1663	880
1	1611	881
1	1569	882
1	1539	883
1	1521	884
1	1521	885
1	1531	886
1	1559	887
1	1597	888
1	1643	889
1	1698	890
1	1746	891
1	1785	892
1	1827	893
1	1857	894
1	1876	895
1	1877	896
1	1864	897
1	1841	898
1	1802	899
1	1759	900
1	1712	901
1	1673	902
1	1635	903
1	1603	904
1	1587	905
1	1584	906
1	1599	907
1	1632	908
1	1670	909
1	1706	910
1	1738	911
1	1764	912
1	1791	913
1	1817	914
1	1828	915
1	1834	916
1	1825	917
1	1799	918
1	1766	919
1	1741	920
1	1718	921
1	1699	922
1	1678	923
1	1672	924
1	1659	925
1	1656	926
1	1660	927
1	1665	928
1	1676	929
1	1692	930
1	1720	931
1	1752	932
1	1787	933
1	1819	934
1	1841	935
1	1847	936
1	1836	937
1	1811	938
1	1779	939
1	1733	940
1	1685	941
1	1638	942
1	1594	943
1	1555	944
1	1516	945
1	1499	946
1	1499	947
1	1510	948
1	1531	949
1	1557	950
1	1581	951
1	1607	952
1	1629	953
1	1647	954
1	1664	955
1	1684	956
1	1693	957
1	1694	958
1	1674	959
1	1643	980
1	1611	981
1	1581	982
1	1555	983
1	1542	984
1	1544	985
1	1564	986
1	1596	987
1	1629	988
1	1659	989
1	1683	990
1	1704	991
1	1724	992
1	1747	993
1	1780	994
1	1803	995
1	1817	996
1	1817	997
1	1803	998
1	1788	999
1	1713	1000
1	1692	1001
1	1682	1002
1	1674	1003
1	1664	1004
1	1659	1005
1	1654	1006
1	1652	1007
1	1654	1008
1	1652	1009
1	1656	1010
1	1652	1011
1	1654	1012
1	1660	1013
1	1669	1014
1	1675	1015
1	1680	1016
1	1676	1017
1	1677	1018
1	1674	1019
1	1766	1000
1	1742	1001
1	1717	1002
1	1688	1003
1	1661	1004
1	1646	1005
1	1639	1006
1	1645	1007
1	1652	1008
1	1661	1009
1	1670	1010
1	1685	1011
1	1704	1012
1	1724	1013
1	1743	1014
1	1759	1015
1	1764	1016
1	1761	1017
1	1751	1018
1	1737	1019
1	1660	1020
1	1657	1021
1	1657	1022
1	1663	1023
1	1670	1024
1	1686	1025
1	1711	1026
1	1739	1027
1	1791	1028
1	1852	1029
1	1901	1030
1	1962	1031
1	2024	1032
1	2083	1033
1	2143	1034
1	2189	1035
1	2220	1036
1	2236	1037
1	2236	1038
1	2215	1039
1	1528	1060
1	1494	1061
1	1464	1062
1	1437	1063
1	1422	1064
1	1406	1065
1	1400	1066
1	1416	1067
1	1444	1068
1	1482	1069
1	1529	1070
1	1573	1071
1	1620	1072
1	1668	1073
1	1712	1074
1	1742	1075
1	1761	1076
1	1763	1077
1	1752	1078
1	1736	1079
1	2174	1040
1	2120	1041
1	2063	1042
1	2006	1043
1	1948	1044
1	1890	1045
1	1837	1046
1	1794	1047
1	1769	1048
1	1757	1049
1	1744	1050
1	1736	1051
1	1726	1052
1	1717	1053
1	1707	1054
1	1692	1055
1	1665	1056
1	1634	1057
1	1595	1058
1	1557	1059
1	1708	1080
1	1675	1081
1	1643	1082
1	1607	1083
1	1582	1084
1	1579	1085
1	1580	1086
1	1584	1087
1	1595	1088
1	1611	1089
1	1635	1090
1	1665	1091
1	1698	1092
1	1723	1093
1	1738	1094
1	1738	1095
1	1738	1096
1	1723	1097
1	1697	1098
1	1662	1099
1	1635	1100
1	1613	1101
1	1607	1102
1	1608	1103
1	1615	1104
1	1625	1105
1	1634	1106
1	1642	1107
1	1652	1108
1	1667	1109
1	1668	1110
1	1671	1111
1	1667	1112
1	1669	1113
1	1680	1114
1	1690	1115
1	1698	1116
1	1694	1117
1	1686	1118
1	1664	1119
1	1621	1140
1	1597	1141
1	1584	1142
1	1580	1143
1	1581	1144
1	1593	1145
1	1611	1146
1	1634	1147
1	1656	1148
1	1673	1149
1	1698	1150
1	1724	1151
1	1744	1152
1	1760	1153
1	1767	1154
1	1769	1155
1	1772	1156
1	1760	1157
1	1738	1158
1	1717	1159
1	1643	1120
1	1622	1121
1	1606	1122
1	1595	1123
1	1592	1124
1	1594	1125
1	1605	1126
1	1617	1127
1	1634	1128
1	1651	1129
1	1665	1130
1	1688	1131
1	1707	1132
1	1718	1133
1	1726	1134
1	1723	1135
1	1712	1136
1	1698	1137
1	1675	1138
1	1654	1139
1	1697	1160
1	1673	1161
1	1656	1162
1	1643	1163
1	1634	1164
1	1631	1165
1	1638	1166
1	1656	1167
1	1683	1168
1	1713	1169
1	1744	1170
1	1773	1171
1	1791	1172
1	1796	1173
1	1803	1174
1	1798	1175
1	1786	1176
1	1765	1177
1	1746	1178
1	1720	1179
1	1697	1180
1	1668	1181
1	1644	1182
1	1624	1183
1	1605	1184
1	1589	1185
1	1584	1186
1	1589	1187
1	1595	1188
1	1610	1189
1	1634	1190
1	1657	1191
1	1684	1192
1	1712	1193
1	1738	1194
1	1755	1195
1	1764	1196
1	1764	1197
1	1751	1198
1	1721	1199
1	1679	1200
1	1644	1201
1	1622	1202
1	1607	1203
1	1598	1204
1	1601	1205
1	1607	1206
1	1621	1207
1	1647	1208
1	1684	1209
1	1721	1210
1	1760	1211
1	1791	1212
1	1823	1213
1	1845	1214
1	1856	1215
1	1865	1216
1	1873	1217
1	1875	1218
1	1869	1219
1	1859	1220
1	1851	1221
1	1845	1222
1	1827	1223
1	1815	1224
1	1787	1225
1	1771	1226
1	1764	1227
1	1764	1228
1	1769	1229
1	1778	1230
1	1790	1231
1	1795	1232
1	1800	1233
1	1803	1234
1	1800	1235
1	1791	1236
1	1790	1237
1	1782	1238
1	1769	1239
1	1825	1260
1	1800	1261
1	1779	1262
1	1764	1263
1	1751	1264
1	1743	1265
1	1737	1266
1	1738	1267
1	1750	1268
1	1769	1269
1	1799	1270
1	1832	1271
1	1860	1272
1	1890	1273
1	1912	1274
1	1919	1275
1	1922	1276
1	1917	1277
1	1906	1278
1	1886	1279
1	1746	1240
1	1715	1241
1	1697	1242
1	1684	1243
1	1679	1244
1	1678	1245
1	1686	1246
1	1710	1247
1	1738	1248
1	1770	1249
1	1818	1250
1	1854	1251
1	1877	1252
1	1897	1253
1	1911	1254
1	1916	1255
1	1910	1256
1	1897	1257
1	1878	1258
1	1856	1259
1	1871	1280
1	1852	1281
1	1834	1282
1	1816	1283
1	1793	1284
1	1786	1285
1	1782	1286
1	1791	1287
1	1795	1288
1	1815	1289
1	1827	1290
1	1842	1291
1	1846	1292
1	1843	1293
1	1834	1294
1	1823	1295
1	1803	1296
1	1786	1297
1	1769	1298
1	1756	1299
1	1749	1300
1	1737	1301
1	1728	1302
1	1724	1303
1	1720	1304
1	1715	1305
1	1724	1306
1	1736	1307
1	1749	1308
1	1764	1309
1	1785	1310
1	1800	1311
1	1816	1312
1	1827	1313
1	1843	1314
1	1857	1315
1	1869	1316
1	1873	1317
1	1874	1318
1	1868	1319
1	1855	1320
1	1839	1321
1	1817	1322
1	1791	1323
1	1773	1324
1	1751	1325
1	1723	1326
1	1694	1327
1	1684	1328
1	1670	1329
1	1660	1330
1	1659	1331
1	1660	1332
1	1664	1333
1	1670	1334
1	1679	1335
1	1683	1336
1	1676	1337
1	1665	1338
1	1650	1339
1	1628	1340
1	1607	1341
1	1592	1342
1	1574	1343
1	1555	1344
1	1541	1345
1	1538	1346
1	1547	1347
1	1562	1348
1	1579	1349
1	1593	1350
1	1610	1351
1	1628	1352
1	1638	1353
1	1641	1354
1	1643	1355
1	1637	1356
1	1632	1357
1	1615	1358
1	1591	1359
1	1553	1360
1	1504	1361
1	1461	1362
1	1431	1363
1	1424	1364
1	1430	1365
1	1450	1366
1	1472	1367
1	1492	1368
1	1521	1369
1	1556	1370
1	1593	1371
1	1631	1372
1	1661	1373
1	1694	1374
1	1713	1375
1	1719	1376
1	1712	1377
1	1695	1378
1	1676	1379
1	1647	1380
1	1620	1381
1	1593	1382
1	1572	1383
1	1554	1384
1	1547	1385
1	1537	1386
1	1533	1387
1	1535	1388
1	1543	1389
1	1557	1390
1	1581	1391
1	1609	1392
1	1652	1393
1	1695	1394
1	1718	1395
1	1737	1396
1	1738	1397
1	1724	1398
1	1696	1399
1	1660	1400
1	1607	1401
1	1557	1402
1	1523	1403
1	1503	1404
1	1499	1405
1	1503	1406
1	1515	1407
1	1529	1408
1	1543	1409
1	1555	1410
1	1576	1411
1	1593	1412
1	1607	1413
1	1625	1414
1	1644	1415
1	1647	1416
1	1647	1417
1	1644	1418
1	1634	1419
1	1616	1420
1	1590	1421
1	1566	1422
1	1554	1423
1	1544	1424
1	1548	1425
1	1565	1426
1	1587	1427
1	1613	1428
1	1647	1429
1	1677	1430
1	1711	1431
1	1737	1432
1	1751	1433
1	1764	1434
1	1760	1435
1	1742	1436
1	1717	1437
1	1688	1438
1	1655	1439
1	1607	1440
1	1574	1441
1	1546	1442
1	1526	1443
1	1517	1444
1	1517	1445
1	1514	1446
1	1526	1447
1	1550	1448
1	1581	1449
1	1624	1450
1	1672	1451
1	1713	1452
1	1751	1453
1	1777	1454
1	1782	1455
1	1778	1456
1	1764	1457
1	1740	1458
1	1717	1459
1	1703	1460
1	1684	1461
1	1661	1462
1	1643	1463
1	1625	1464
1	1610	1465
1	1603	1466
1	1593	1467
1	1585	1468
1	1589	1469
1	1593	1470
1	1607	1471
1	1623	1472
1	1644	1473
1	1661	1474
1	1677	1475
1	1684	1476
1	1685	1477
1	1682	1478
1	1673	1479
1	1660	1480
1	1645	1481
1	1634	1482
1	1634	1483
1	1638	1484
1	1638	1485
1	1638	1486
1	1634	1487
1	1634	1488
1	1636	1489
1	1650	1490
1	1664	1491
1	1679	1492
1	1695	1493
1	1705	1494
1	1701	1495
1	1697	1496
1	1686	1497
1	1675	1498
1	1661	1499
1	1644	1500
1	1628	1501
1	1612	1502
1	1603	1503
1	1595	1504
1	1602	1505
1	1606	1506
1	1610	1507
1	1621	1508
1	1632	1509
1	1638	1510
1	1654	1511
1	1660	1512
1	1669	1513
1	1681	1514
1	1686	1515
1	1685	1516
1	1671	1517
1	1652	1518
1	1634	1519
1	1623	1520
1	1611	1521
1	1600	1522
1	1600	1523
1	1599	1524
1	1607	1525
1	1621	1526
1	1645	1527
1	1669	1528
1	1695	1529
1	1719	1530
1	1745	1531
1	1769	1532
1	1791	1533
1	1814	1534
1	1825	1535
1	1822	1536
1	1811	1537
1	1788	1538
1	1769	1539
1	1688	1560
1	1667	1561
1	1647	1562
1	1633	1563
1	1629	1564
1	1634	1565
1	1634	1566
1	1635	1567
1	1636	1568
1	1639	1569
1	1648	1570
1	1660	1571
1	1669	1572
1	1673	1573
1	1676	1574
1	1674	1575
1	1680	1576
1	1686	1577
1	1697	1578
1	1697	1579
1	1749	1540
1	1726	1541
1	1708	1542
1	1688	1543
1	1668	1544
1	1641	1545
1	1631	1546
1	1626	1547
1	1633	1548
1	1643	1549
1	1670	1550
1	1697	1551
1	1719	1552
1	1738	1553
1	1751	1554
1	1754	1555
1	1748	1556
1	1733	1557
1	1716	1558
1	1710	1559
1	1738	1600
1	1728	1601
1	1721	1602
1	1713	1603
1	1704	1604
1	1686	1605
1	1668	1606
1	1657	1607
1	1650	1608
1	1648	1609
1	1658	1610
1	1662	1611
1	1668	1612
1	1673	1613
1	1679	1614
1	1686	1615
1	1688	1616
1	1689	1617
1	1684	1618
1	1679	1619
1	1697	1580
1	1684	1581
1	1674	1582
1	1662	1583
1	1658	1584
1	1652	1585
1	1648	1586
1	1654	1587
1	1661	1588
1	1674	1589
1	1682	1590
1	1692	1591
1	1707	1592
1	1718	1593
1	1729	1594
1	1741	1595
1	1746	1596
1	1746	1597
1	1743	1598
1	1741	1599
1	1662	1620
1	1649	1621
1	1641	1622
1	1634	1623
1	1633	1624
1	1636	1625
1	1641	1626
1	1649	1627
1	1672	1628
1	1686	1629
1	1701	1630
1	1712	1631
1	1729	1632
1	1745	1633
1	1763	1634
1	1777	1635
1	1800	1636
1	1830	1637
1	1850	1638
1	1856	1639
1	1845	1640
1	1817	1641
1	1773	1642
1	1738	1643
1	1709	1644
1	1683	1645
1	1665	1646
1	1665	1647
1	1671	1648
1	1680	1649
1	1690	1650
1	1710	1651
1	1729	1652
1	1751	1653
1	1770	1654
1	1791	1655
1	1799	1656
1	1801	1657
1	1796	1658
1	1785	1659
1	1760	1660
1	1727	1661
1	1692	1662
1	1662	1663
1	1643	1664
1	1621	1665
1	1610	1666
1	1618	1667
1	1634	1668
1	1658	1669
1	1688	1670
1	1712	1671
1	1731	1672
1	1749	1673
1	1766	1674
1	1782	1675
1	1791	1676
1	1787	1677
1	1769	1678
1	1751	1679
1	1728	1680
1	1711	1681
1	1705	1682
1	1707	1683
1	1710	1684
1	1712	1685
1	1709	1686
1	1701	1687
1	1701	1688
1	1710	1689
1	1733	1690
1	1764	1691
1	1788	1692
1	1812	1693
1	1827	1694
1	1832	1695
1	1832	1696
1	1826	1697
1	1811	1698
1	1787	1699
1	1767	1700
1	1746	1701
1	1723	1702
1	1698	1703
1	1675	1704
1	1660	1705
1	1645	1706
1	1638	1707
1	1647	1708
1	1665	1709
1	1690	1710
1	1724	1711
1	1762	1712
1	1796	1713
1	1828	1714
1	1852	1715
1	1857	1716
1	1855	1717
1	1836	1718
1	1813	1719
1	1786	1720
1	1764	1721
1	1740	1722
1	1712	1723
1	1686	1724
1	1659	1725
1	1636	1726
1	1625	1727
1	1630	1728
1	1647	1729
1	1663	1730
1	1692	1731
1	1720	1732
1	1753	1733
1	1801	1734
1	1842	1735
1	1868	1736
1	1871	1737
1	1868	1738
1	1852	1739
1	1817	1740
1	1783	1741
1	1749	1742
1	1713	1743
1	1675	1744
1	1649	1745
1	1628	1746
1	1616	1747
1	1621	1748
1	1641	1749
1	1673	1750
1	1710	1751
1	1742	1752
1	1777	1753
1	1817	1754
1	1842	1755
1	1856	1756
1	1858	1757
1	1854	1758
1	1843	1759
1	1834	1760
1	1813	1761
1	1790	1762
1	1765	1763
1	1747	1764
1	1737	1765
1	1728	1766
1	1730	1767
1	1737	1768
1	1749	1769
1	1764	1770
1	1795	1771
1	1832	1772
1	1860	1773
1	1884	1774
1	1901	1775
1	1907	1776
1	1904	1777
1	1886	1778
1	1864	1779
1	1839	1800
1	1816	1801
1	1793	1802
1	1775	1803
1	1751	1804
1	1734	1805
1	1711	1806
1	1699	1807
1	1701	1808
1	1716	1809
1	1738	1810
1	1761	1811
1	1778	1812
1	1791	1813
1	1809	1814
1	1817	1815
1	1831	1816
1	1837	1817
1	1833	1818
1	1828	1819
1	1832	1800
1	1793	1801
1	1764	1802
1	1736	1803
1	1715	1804
1	1701	1805
1	1695	1806
1	1705	1807
1	1724	1808
1	1751	1809
1	1788	1810
1	1818	1811
1	1845	1812
1	1869	1813
1	1884	1814
1	1895	1815
1	1897	1816
1	1895	1817
1	1882	1818
1	1864	1819
1	1821	1820
1	1809	1821
1	1789	1822
1	1790	1823
1	1782	1824
1	1764	1825
1	1751	1826
1	1742	1827
1	1742	1828
1	1753	1829
1	1765	1830
1	1786	1831
1	1812	1832
1	1832	1833
1	1849	1834
1	1859	1835
1	1867	1836
1	1857	1837
1	1843	1838
1	1832	1839
1	1817	1840
1	1796	1841
1	1782	1842
1	1767	1843
1	1760	1844
1	1744	1845
1	1737	1846
1	1737	1847
1	1741	1848
1	1755	1849
1	1778	1850
1	1799	1851
1	1823	1852
1	1842	1853
1	1856	1854
1	1870	1855
1	1884	1856
1	1882	1857
1	1875	1858
1	1861	1859
1	1831	1860
1	1798	1861
1	1764	1862
1	1737	1863
1	1711	1864
1	1704	1865
1	1700	1866
1	1714	1867
1	1738	1868
1	1767	1869
1	1795	1870
1	1826	1871
1	1848	1872
1	1868	1873
1	1890	1874
1	1894	1875
1	1895	1876
1	1889	1877
1	1872	1878
1	1856	1879
1	1840	1880
1	1818	1881
1	1796	1882
1	1783	1883
1	1769	1884
1	1751	1885
1	1731	1886
1	1723	1887
1	1719	1888
1	1728	1889
1	1737	1890
1	1760	1891
1	1783	1892
1	1803	1893
1	1818	1894
1	1823	1895
1	1814	1896
1	1790	1897
1	1764	1898
1	1737	1899
1	1704	1900
1	1677	1901
1	1656	1902
1	1641	1903
1	1634	1904
1	1631	1905
1	1634	1906
1	1646	1907
1	1664	1908
1	1695	1909
1	1737	1910
1	1770	1911
1	1802	1912
1	1827	1913
1	1839	1914
1	1842	1915
1	1837	1916
1	1815	1917
1	1782	1918
1	1751	1919
1	1714	1920
1	1686	1921
1	1669	1922
1	1661	1923
1	1669	1924
1	1697	1925
1	1729	1926
1	1764	1927
1	1809	1928
1	1856	1929
1	1897	1930
1	1938	1931
1	1972	1932
1	2001	1933
1	2031	1934
1	2057	1935
1	2079	1936
1	2100	1937
1	2106	1938
1	2105	1939
1	2102	1940
1	2106	1941
1	2120	1942
1	2145	1943
1	2178	1944
1	2204	1945
1	2231	1946
1	2248	1947
1	2261	1948
1	2264	1949
1	2255	1950
1	2246	1951
1	2233	1952
1	2201	1953
1	2163	1954
1	2122	1955
1	2067	1956
1	2014	1957
1	1962	1958
1	1898	1959
1	1827	1960
1	1759	1961
1	1707	1962
1	1661	1963
1	1625	1964
1	1589	1965
1	1563	1966
1	1544	1967
1	1538	1968
1	1543	1969
1	1561	1970
1	1587	1971
1	1620	1972
1	1661	1973
1	1703	1974
1	1737	1975
1	1755	1976
1	1757	1977
1	1746	1978
1	1726	1979
1	1692	1980
1	1660	1981
1	1635	1982
1	1615	1983
1	1607	1984
1	1611	1985
1	1623	1986
1	1642	1987
1	1665	1988
1	1693	1989
1	1728	1990
1	1764	1991
1	1790	1992
1	1814	1993
1	1831	1994
1	1839	1995
1	1844	1996
1	1842	1997
1	1829	1998
1	1816	1999
1	1808	2000
1	1791	2001
1	1772	2002
1	1756	2003
1	1738	2004
1	1727	2005
1	1716	2006
1	1714	2007
1	1719	2008
1	1734	2009
1	1743	2010
1	1763	2011
1	1782	2012
1	1800	2013
1	1817	2014
1	1831	2015
1	1827	2016
1	1814	2017
1	1783	2018
1	1753	2019
1	1714	2020
1	1673	2021
1	1629	2022
1	1593	2023
1	1557	2024
1	1544	2025
1	1541	2026
1	1551	2027
1	1574	2028
1	1602	2029
1	1629	2030
1	1664	2031
1	1698	2032
1	1733	2033
1	1769	2034
1	1799	2035
1	1825	2036
1	1834	2037
1	1832	2038
1	1824	2039
1	1803	2040
1	1792	2041
1	1782	2042
1	1764	2043
1	1747	2044
1	1746	2045
1	1746	2046
1	1756	2047
1	1774	2048
1	1796	2049
1	1832	2050
1	1865	2051
1	1899	2052
1	1923	2053
1	1944	2054
1	1948	2055
1	1951	2056
1	1947	2057
1	1922	2058
1	1886	2059
1	1848	2060
1	1793	2061
1	1744	2062
1	1698	2063
1	1655	2064
1	1620	2065
1	1594	2066
1	1585	2067
1	1595	2068
1	1620	2069
1	1651	2070
1	1693	2071
1	1738	2072
1	1786	2073
1	1834	2074
1	1882	2075
1	1918	2076
1	1944	2077
1	1956	2078
1	1957	2079
1	1945	2080
1	1922	2081
1	1896	2082
1	1869	2083
1	1843	2084
1	1818	2085
1	1803	2086
1	1795	2087
1	1791	2088
1	1791	2089
1	1800	2090
1	1817	2091
1	1841	2092
1	1856	2093
1	1874	2094
1	1890	2095
1	1898	2096
1	1895	2097
1	1872	2098
1	1845	2099
1	1809	2100
1	1773	2101
1	1746	2102
1	1720	2103
1	1707	2104
1	1711	2105
1	1716	2106
1	1729	2107
1	1738	2108
1	1749	2109
1	1760	2110
1	1773	2111
1	1790	2112
1	1803	2113
1	1821	2114
1	1829	2115
1	1830	2116
1	1826	2117
1	1818	2118
1	1814	2119
1	1808	2120
1	1779	2121
1	1751	2122
1	1722	2123
1	1712	2124
1	1701	2125
1	1705	2126
1	1718	2127
1	1740	2128
1	1766	2129
1	1803	2130
1	1836	2131
1	1867	2132
1	1893	2133
1	1913	2134
1	1920	2135
1	1917	2136
1	1895	2137
1	1867	2138
1	1842	2139
1	1809	2140
1	1777	2141
1	1757	2142
1	1750	2143
1	1752	2144
1	1769	2145
1	1793	2146
1	1835	2147
1	1872	2148
1	1913	2149
1	1962	2150
1	2001	2151
1	2040	2152
1	2078	2153
1	2105	2154
1	2120	2155
1	2127	2156
1	2120	2157
1	2102	2158
1	2067	2159
1	2016	2160
1	1971	2161
1	1922	2162
1	1884	2163
1	1856	2164
1	1845	2165
1	1839	2166
1	1843	2167
1	1857	2168
1	1872	2169
1	1895	2170
1	1912	2171
1	1929	2172
1	1948	2173
1	1958	2174
1	1953	2175
1	1949	2176
1	1931	2177
1	1907	2178
1	1883	2179
1	1869	2180
1	1856	2181
1	1843	2182
1	1829	2183
1	1817	2184
1	1809	2185
1	1809	2186
1	1815	2187
1	1830	2188
1	1850	2189
1	1868	2190
1	1895	2191
1	1922	2192
1	1955	2193
1	1986	2194
1	2015	2195
1	2029	2196
1	2034	2197
1	2032	2198
1	2026	2199
1	2012	2200
1	1981	2201
1	1947	2202
1	1914	2203
1	1894	2204
1	1877	2205
1	1880	2206
1	1894	2207
1	1908	2208
1	1922	2209
1	1940	2210
1	1948	2211
1	1950	2212
1	1953	2213
1	1959	2214
1	1965	2215
1	1969	2216
1	1963	2217
1	1953	2218
1	1938	2219
1	1908	2220
1	1883	2221
1	1856	2222
1	1821	2223
1	1788	2224
1	1764	2225
1	1742	2226
1	1726	2227
1	1728	2228
1	1733	2229
1	1738	2230
1	1754	2231
1	1775	2232
1	1795	2233
1	1812	2234
1	1815	2235
1	1802	2236
1	1785	2237
1	1759	2238
1	1735	2239
1	1700	2240
1	1675	2241
1	1652	2242
1	1635	2243
1	1637	2244
1	1643	2245
1	1652	2246
1	1664	2247
1	1683	2248
1	1701	2249
1	1710	2250
1	1712	2251
1	1719	2252
1	1728	2253
1	1728	2254
1	1738	2255
1	1742	2256
1	1746	2257
1	1742	2258
1	1738	2259
1	1728	2260
1	1712	2261
1	1700	2262
1	1684	2263
1	1668	2264
1	1647	2265
1	1639	2266
1	1643	2267
1	1656	2268
1	1674	2269
1	1700	2270
1	1724	2271
1	1746	2272
1	1762	2273
1	1766	2274
1	1769	2275
1	1766	2276
1	1760	2277
1	1746	2278
1	1726	2279
1	1688	2280
1	1647	2281
1	1603	2282
1	1563	2283
1	1530	2284
1	1515	2285
1	1505	2286
1	1517	2287
1	1548	2288
1	1590	2289
1	1634	2290
1	1671	2291
1	1699	2292
1	1719	2293
1	1733	2294
1	1728	2295
1	1718	2296
1	1699	2297
1	1669	2298
1	1634	2299
1	1600	2300
1	1561	2301
1	1534	2302
1	1520	2303
1	1514	2304
1	1523	2305
1	1546	2306
1	1584	2307
1	1631	2308
1	1674	2309
1	1713	2310
1	1749	2311
1	1776	2312
1	1798	2313
1	1819	2314
1	1841	2315
1	1843	2316
1	1831	2317
1	1809	2318
1	1769	2319
1	1783	2340
1	1755	2341
1	1718	2342
1	1679	2343
1	1643	2344
1	1619	2345
1	1595	2346
1	1583	2347
1	1591	2348
1	1607	2349
1	1629	2350
1	1645	2351
1	1662	2352
1	1688	2353
1	1723	2354
1	1740	2355
1	1751	2356
1	1751	2357
1	1747	2358
1	1742	2359
1	1718	2320
1	1663	2321
1	1607	2322
1	1555	2323
1	1503	2324
1	1465	2325
1	1437	2326
1	1428	2327
1	1438	2328
1	1465	2329
1	1502	2330
1	1555	2331
1	1605	2332
1	1654	2333
1	1712	2334
1	1763	2335
1	1800	2336
1	1829	2337
1	1841	2338
1	1827	2339
1	1736	2360
1	1713	2361
1	1694	2362
1	1682	2363
1	1670	2364
1	1662	2365
1	1656	2366
1	1647	2367
1	1643	2368
1	1643	2369
1	1634	2370
1	1634	2371
1	1638	2372
1	1649	2373
1	1665	2374
1	1688	2375
1	1703	2376
1	1712	2377
1	1715	2378
1	1708	2379
1	1686	2380
1	1659	2381
1	1632	2382
1	1619	2383
1	1616	2384
1	1611	2385
1	1616	2386
1	1619	2387
1	1627	2388
1	1643	2389
1	1670	2390
1	1700	2391
1	1729	2392
1	1755	2393
1	1772	2394
1	1772	2395
1	1765	2396
1	1752	2397
1	1736	2398
1	1713	2399
1	1677	2400
1	1647	2401
1	1621	2402
1	1596	2403
1	1569	2404
1	1547	2405
1	1529	2406
1	1517	2407
1	1520	2408
1	1530	2409
1	1549	2410
1	1569	2411
1	1589	2412
1	1610	2413
1	1639	2414
1	1672	2415
1	1701	2416
1	1727	2417
1	1741	2418
1	1751	2419
1	1752	2420
1	1738	2421
1	1718	2422
1	1701	2423
1	1694	2424
1	1669	2425
1	1649	2426
1	1639	2427
1	1642	2428
1	1647	2429
1	1656	2430
1	1672	2431
1	1691	2432
1	1712	2433
1	1736	2434
1	1747	2435
1	1764	2436
1	1765	2437
1	1756	2438
1	1746	2439
1	1738	2460
1	1710	2461
1	1679	2462
1	1644	2463
1	1599	2464
1	1566	2465
1	1534	2466
1	1518	2467
1	1517	2468
1	1524	2469
1	1542	2470
1	1577	2471
1	1623	2472
1	1670	2473
1	1711	2474
1	1736	2475
1	1752	2476
1	1762	2477
1	1762	2478
1	1749	2479
1	1716	2440
1	1681	2441
1	1644	2442
1	1608	2443
1	1581	2444
1	1556	2445
1	1551	2446
1	1553	2447
1	1561	2448
1	1581	2449
1	1607	2450
1	1629	2451
1	1650	2452
1	1671	2453
1	1697	2454
1	1720	2455
1	1746	2456
1	1764	2457
1	1772	2458
1	1764	2459
1	1730	2480
1	1704	2481
1	1671	2482
1	1635	2483
1	1602	2484
1	1574	2485
1	1555	2486
1	1555	2487
1	1567	2488
1	1587	2489
1	1608	2490
1	1637	2491
1	1665	2492
1	1695	2493
1	1723	2494
1	1749	2495
1	1762	2496
1	1765	2497
1	1762	2498
1	1741	2499
1	1713	2500
1	1685	2501
1	1663	2502
1	1641	2503
1	1620	2504
1	1593	2505
1	1580	2506
1	1573	2507
1	1574	2508
1	1584	2509
1	1612	2510
1	1642	2511
1	1660	2512
1	1685	2513
1	1709	2514
1	1720	2515
1	1726	2516
1	1719	2517
1	1710	2518
1	1691	2519
1	1661	2520
1	1634	2521
1	1600	2522
1	1572	2523
1	1544	2524
1	1525	2525
1	1501	2526
1	1478	2527
1	1476	2528
1	1490	2529
1	1507	2530
1	1534	2531
1	1560	2532
1	1592	2533
1	1623	2534
1	1648	2535
1	1677	2536
1	1700	2537
1	1718	2538
1	1723	2539
1	1634	2580
1	1605	2581
1	1569	2582
1	1539	2583
1	1508	2584
1	1494	2585
1	1484	2586
1	1495	2587
1	1528	2588
1	1572	2589
1	1621	2590
1	1659	2591
1	1688	2592
1	1712	2593
1	1735	2594
1	1736	2595
1	1728	2596
1	1715	2597
1	1701	2598
1	1683	2599
1	1706	2540
1	1687	2541
1	1659	2542
1	1635	2543
1	1612	2544
1	1597	2545
1	1585	2546
1	1590	2547
1	1607	2548
1	1634	2549
1	1664	2550
1	1686	2551
1	1710	2552
1	1724	2553
1	1734	2554
1	1746	2555
1	1751	2556
1	1755	2557
1	1750	2558
1	1735	2559
1	1712	2560
1	1686	2561
1	1657	2562
1	1630	2563
1	1607	2564
1	1581	2565
1	1570	2566
1	1566	2567
1	1581	2568
1	1607	2569
1	1644	2570
1	1674	2571
1	1701	2572
1	1723	2573
1	1736	2574
1	1737	2575
1	1733	2576
1	1718	2577
1	1700	2578
1	1674	2579
1	1664	2600
1	1639	2601
1	1618	2602
1	1602	2603
1	1586	2604
1	1580	2605
1	1580	2606
1	1593	2607
1	1614	2608
1	1642	2609
1	1662	2610
1	1680	2611
1	1688	2612
1	1692	2613
1	1695	2614
1	1701	2615
1	1698	2616
1	1697	2617
1	1685	2618
1	1671	2619
1	1685	2640
1	1661	2641
1	1634	2642
1	1607	2643
1	1580	2644
1	1563	2645
1	1553	2646
1	1544	2647
1	1544	2648
1	1556	2649
1	1580	2650
1	1606	2651
1	1634	2652
1	1665	2653
1	1710	2654
1	1742	2655
1	1760	2656
1	1764	2657
1	1752	2658
1	1729	2659
1	1652	2620
1	1634	2621
1	1611	2622
1	1600	2623
1	1589	2624
1	1579	2625
1	1571	2626
1	1573	2627
1	1579	2628
1	1592	2629
1	1607	2630
1	1629	2631
1	1652	2632
1	1675	2633
1	1705	2634
1	1721	2635
1	1728	2636
1	1734	2637
1	1728	2638
1	1712	2639
1	1701	2660
1	1665	2661
1	1634	2662
1	1609	2663
1	1590	2664
1	1574	2665
1	1562	2666
1	1555	2667
1	1554	2668
1	1563	2669
1	1580	2670
1	1596	2671
1	1615	2672
1	1643	2673
1	1667	2674
1	1690	2675
1	1699	2676
1	1700	2677
1	1692	2678
1	1674	2679
1	1645	2680
1	1619	2681
1	1587	2682
1	1561	2683
1	1542	2684
1	1528	2685
1	1524	2686
1	1529	2687
1	1544	2688
1	1556	2689
1	1581	2690
1	1607	2691
1	1634	2692
1	1662	2693
1	1688	2694
1	1707	2695
1	1717	2696
1	1718	2697
1	1712	2698
1	1698	2699
1	1669	2700
1	1638	2701
1	1604	2702
1	1570	2703
1	1550	2704
1	1544	2705
1	1538	2706
1	1542	2707
1	1556	2708
1	1586	2709
1	1626	2710
1	1664	2711
1	1695	2712
1	1718	2713
1	1736	2714
1	1738	2715
1	1743	2716
1	1748	2717
1	1746	2718
1	1736	2719
1	1718	2720
1	1697	2721
1	1679	2722
1	1660	2723
1	1648	2724
1	1634	2725
1	1629	2726
1	1625	2727
1	1626	2728
1	1629	2729
1	1634	2730
1	1646	2731
1	1660	2732
1	1671	2733
1	1686	2734
1	1699	2735
1	1710	2736
1	1712	2737
1	1716	2738
1	1716	2739
1	1711	2740
1	1688	2741
1	1665	2742
1	1641	2743
1	1618	2744
1	1592	2745
1	1581	2746
1	1581	2747
1	1590	2748
1	1607	2749
1	1641	2750
1	1673	2751
1	1703	2752
1	1726	2753
1	1742	2754
1	1752	2755
1	1760	2756
1	1764	2757
1	1761	2758
1	1751	2759
1	1729	2760
1	1712	2761
1	1698	2762
1	1697	2763
1	1696	2764
1	1706	2765
1	1712	2766
1	1715	2767
1	1721	2768
1	1728	2769
1	1741	2770
1	1755	2771
1	1769	2772
1	1776	2773
1	1778	2774
1	1767	2775
1	1764	2776
1	1751	2777
1	1733	2778
1	1706	2779
1	1686	2780
1	1662	2781
1	1643	2782
1	1629	2783
1	1607	2784
1	1596	2785
1	1586	2786
1	1581	2787
1	1583	2788
1	1594	2789
1	1602	2790
1	1611	2791
1	1619	2792
1	1631	2793
1	1648	2794
1	1670	2795
1	1686	2796
1	1690	2797
1	1686	2798
1	1675	2799
1	1657	2800
1	1639	2801
1	1625	2802
1	1616	2803
1	1607	2804
1	1593	2805
1	1587	2806
1	1587	2807
1	1594	2808
1	1607	2809
1	1623	2810
1	1638	2811
1	1657	2812
1	1680	2813
1	1698	2814
1	1712	2815
1	1722	2816
1	1731	2817
1	1724	2818
1	1708	2819
1	1674	2840
1	1644	2841
1	1605	2842
1	1566	2843
1	1536	2844
1	1517	2845
1	1515	2846
1	1515	2847
1	1524	2848
1	1549	2849
1	1580	2850
1	1607	2851
1	1634	2852
1	1660	2853
1	1682	2854
1	1698	2855
1	1710	2856
1	1712	2857
1	1706	2858
1	1688	2859
1	1665	2840
1	1644	2841
1	1627	2842
1	1616	2843
1	1599	2844
1	1582	2845
1	1569	2846
1	1557	2847
1	1555	2848
1	1557	2849
1	1567	2850
1	1580	2851
1	1594	2852
1	1617	2853
1	1644	2854
1	1669	2855
1	1684	2856
1	1687	2857
1	1692	2858
1	1691	2859
1	1683	2860
1	1678	2861
1	1676	2862
1	1677	2863
1	1679	2864
1	1686	2865
1	1700	2866
1	1728	2867
1	1767	2868
1	1823	2869
1	1885	2870
1	1948	2871
1	2013	2872
1	2075	2873
1	2130	2874
1	2183	2875
1	2236	2876
1	2282	2877
1	2317	2878
1	2335	2879
1	2320	2880
1	2294	2881
1	2255	2882
1	2201	2883
1	2152	2884
1	2105	2885
1	2052	2886
1	2001	2887
1	1949	2888
1	1900	2889
1	1855	2890
1	1809	2891
1	1764	2892
1	1720	2893
1	1681	2894
1	1630	2895
1	1585	2896
1	1534	2897
1	1476	2898
1	1424	2899
1	1372	2900
1	1328	2901
1	1293	2902
1	1267	2903
1	1262	2904
1	1269	2905
1	1289	2906
1	1319	2907
1	1355	2908
1	1399	2909
1	1445	2910
1	1479	2911
1	1517	2912
1	1554	2913
1	1589	2914
1	1614	2915
1	1627	2916
1	1631	2917
1	1620	2918
1	1606	2919
1	1759	2940
1	1737	2941
1	1711	2942
1	1686	2943
1	1662	2944
1	1655	2945
1	1647	2946
1	1645	2947
1	1651	2948
1	1663	2949
1	1679	2950
1	1697	2951
1	1713	2952
1	1730	2953
1	1742	2954
1	1743	2955
1	1738	2956
1	1729	2957
1	1712	2958
1	1689	2959
1	1581	2920
1	1555	2921
1	1528	2922
1	1505	2923
1	1491	2924
1	1490	2925
1	1503	2926
1	1529	2927
1	1562	2928
1	1606	2929
1	1647	2930
1	1688	2931
1	1726	2932
1	1757	2933
1	1788	2934
1	1801	2935
1	1811	2936
1	1809	2937
1	1799	2938
1	1788	2939
1	1667	2960
1	1641	2961
1	1619	2962
1	1603	2963
1	1594	2964
1	1587	2965
1	1581	2966
1	1580	2967
1	1590	2968
1	1610	2969
1	1636	2970
1	1665	2971
1	1697	2972
1	1716	2973
1	1731	2974
1	1738	2975
1	1728	2976
1	1710	2977
1	1686	2978
1	1660	2979
1	1634	2980
1	1611	2981
1	1594	2982
1	1581	2983
1	1568	2984
1	1562	2985
1	1559	2986
1	1568	2987
1	1583	2988
1	1609	2989
1	1647	2990
1	1675	2991
1	1705	2992
1	1729	2993
1	1751	2994
1	1766	2995
1	1782	2996
1	1790	2997
1	1790	2998
1	1778	2999
1	1755	3000
1	1737	3001
1	1712	3002
1	1685	3003
1	1647	3004
1	1616	3005
1	1589	3006
1	1574	3007
1	1570	3008
1	1581	3009
1	1603	3010
1	1625	3011
1	1651	3012
1	1683	3013
1	1712	3014
1	1737	3015
1	1749	3016
1	1760	3017
1	1764	3018
1	1758	3019
1	1751	3020
1	1733	3021
1	1709	3022
1	1699	3023
1	1692	3024
1	1675	3025
1	1665	3026
1	1663	3027
1	1673	3028
1	1685	3029
1	1695	3030
1	1705	3031
1	1715	3032
1	1726	3033
1	1738	3034
1	1750	3035
1	1751	3036
1	1746	3037
1	1739	3038
1	1728	3039
1	1706	3060
1	1683	3061
1	1664	3062
1	1658	3063
1	1656	3064
1	1639	3065
1	1634	3066
1	1631	3067
1	1636	3068
1	1647	3069
1	1659	3070
1	1669	3071
1	1686	3072
1	1708	3073
1	1737	3074
1	1765	3075
1	1800	3076
1	1831	3077
1	1843	3078
1	1842	3079
1	1826	3060
1	1817	3061
1	1798	3062
1	1787	3063
1	1764	3064
1	1751	3065
1	1740	3066
1	1734	3067
1	1734	3068
1	1737	3069
1	1742	3070
1	1753	3071
1	1770	3072
1	1789	3073
1	1798	3074
1	1799	3075
1	1803	3076
1	1812	3077
1	1818	3078
1	1819	3079
1	1814	3080
1	1785	3081
1	1757	3082
1	1728	3083
1	1713	3084
1	1701	3085
1	1694	3086
1	1685	3087
1	1680	3088
1	1688	3089
1	1705	3090
1	1729	3091
1	1757	3092
1	1785	3093
1	1817	3094
1	1848	3095
1	1867	3096
1	1875	3097
1	1887	3098
1	1891	3099
1	1894	3100
1	1895	3101
1	1896	3102
1	1901	3103
1	1901	3104
1	1896	3105
1	1895	3106
1	1895	3107
1	1895	3108
1	1895	3109
1	1908	3110
1	1922	3111
1	1934	3112
1	1948	3113
1	1966	3114
1	1976	3115
1	1981	3116
1	1975	3117
1	1961	3118
1	1945	3119
1	1863	3140
1	1830	3141
1	1799	3142
1	1786	3143
1	1770	3144
1	1764	3145
1	1757	3146
1	1747	3147
1	1737	3148
1	1729	3149
1	1726	3150
1	1736	3151
1	1749	3152
1	1751	3153
1	1752	3154
1	1760	3155
1	1755	3156
1	1749	3157
1	1737	3158
1	1719	3159
1	1908	3120
1	1887	3121
1	1864	3122
1	1843	3123
1	1830	3124
1	1823	3125
1	1829	3126
1	1823	3127
1	1817	3128
1	1826	3129
1	1831	3130
1	1845	3131
1	1862	3132
1	1881	3133
1	1898	3134
1	1910	3135
1	1922	3136
1	1926	3137
1	1920	3138
1	1896	3139
1	1698	3160
1	1674	3161
1	1656	3162
1	1643	3163
1	1632	3164
1	1616	3165
1	1609	3166
1	1606	3167
1	1603	3168
1	1605	3169
1	1615	3170
1	1625	3171
1	1632	3172
1	1641	3173
1	1654	3174
1	1669	3175
1	1686	3176
1	1700	3177
1	1708	3178
1	1704	3179
1	1683	3180
1	1664	3181
1	1647	3182
1	1642	3183
1	1638	3184
1	1641	3185
1	1636	3186
1	1636	3187
1	1639	3188
1	1647	3189
1	1652	3190
1	1652	3191
1	1651	3192
1	1644	3193
1	1636	3194
1	1626	3195
1	1621	3196
1	1607	3197
1	1589	3198
1	1574	3199
1	1562	3200
1	1549	3201
1	1539	3202
1	1528	3203
1	1518	3204
1	1510	3205
1	1510	3206
1	1510	3207
1	1515	3208
1	1518	3209
1	1529	3210
1	1553	3211
1	1583	3212
1	1609	3213
1	1632	3214
1	1647	3215
1	1651	3216
1	1647	3217
1	1642	3218
1	1633	3219
1	1625	3240
1	1611	3241
1	1594	3242
1	1586	3243
1	1583	3244
1	1580	3245
1	1572	3246
1	1564	3247
1	1557	3248
1	1554	3249
1	1562	3250
1	1579	3251
1	1591	3252
1	1595	3253
1	1608	3254
1	1617	3255
1	1621	3256
1	1618	3257
1	1602	3258
1	1581	3259
1	1557	3240
1	1553	3241
1	1542	3242
1	1531	3243
1	1525	3244
1	1518	3245
1	1513	3246
1	1513	3247
1	1523	3248
1	1537	3249
1	1555	3250
1	1581	3251
1	1607	3252
1	1636	3253
1	1665	3254
1	1685	3255
1	1686	3256
1	1675	3257
1	1652	3258
1	1624	3259
1	1607	3260
1	1592	3261
1	1591	3262
1	1595	3263
1	1607	3264
1	1622	3265
1	1640	3266
1	1660	3267
1	1680	3268
1	1695	3269
1	1707	3270
1	1717	3271
1	1724	3272
1	1718	3273
1	1710	3274
1	1700	3275
1	1679	3276
1	1660	3277
1	1641	3278
1	1623	3279
1	1607	3280
1	1593	3281
1	1580	3282
1	1559	3283
1	1541	3284
1	1513	3285
1	1495	3286
1	1481	3287
1	1472	3288
1	1466	3289
1	1476	3290
1	1494	3291
1	1517	3292
1	1544	3293
1	1575	3294
1	1607	3295
1	1639	3296
1	1669	3297
1	1688	3298
1	1691	3299
1	1682	3300
1	1661	3301
1	1641	3302
1	1618	3303
1	1603	3304
1	1595	3305
1	1585	3306
1	1581	3307
1	1587	3308
1	1594	3309
1	1602	3310
1	1610	3311
1	1619	3312
1	1625	3313
1	1629	3314
1	1625	3315
1	1623	3316
1	1616	3317
1	1607	3318
1	1590	3319
1	1574	3320
1	1553	3321
1	1528	3322
1	1508	3323
1	1499	3324
1	1490	3325
1	1494	3326
1	1508	3327
1	1533	3328
1	1571	3329
1	1614	3330
1	1652	3331
1	1679	3332
1	1693	3333
1	1710	3334
1	1725	3335
1	1738	3336
1	1748	3337
1	1746	3338
1	1744	3339
1	1732	3340
1	1710	3341
1	1685	3342
1	1660	3343
1	1634	3344
1	1598	3345
1	1580	3346
1	1566	3347
1	1562	3348
1	1565	3349
1	1580	3350
1	1599	3351
1	1628	3352
1	1661	3353
1	1698	3354
1	1727	3355
1	1750	3356
1	1760	3357
1	1752	3358
1	1736	3359
1	1691	3360
1	1650	3361
1	1605	3362
1	1567	3363
1	1547	3364
1	1536	3365
1	1530	3366
1	1530	3367
1	1548	3368
1	1566	3369
1	1584	3370
1	1607	3371
1	1628	3372
1	1643	3373
1	1660	3374
1	1662	3375
1	1665	3376
1	1661	3377
1	1656	3378
1	1642	3379
1	1629	3380
1	1609	3381
1	1597	3382
1	1586	3383
1	1579	3384
1	1572	3385
1	1570	3386
1	1569	3387
1	1566	3388
1	1571	3389
1	1572	3390
1	1580	3391
1	1583	3392
1	1589	3393
1	1594	3394
1	1604	3395
1	1607	3396
1	1603	3397
1	1594	3398
1	1587	3399
1	1580	3400
1	1571	3401
1	1559	3402
1	1555	3403
1	1549	3404
1	1535	3405
1	1530	3406
1	1542	3407
1	1561	3408
1	1587	3409
1	1613	3410
1	1635	3411
1	1660	3412
1	1685	3413
1	1701	3414
1	1713	3415
1	1722	3416
1	1718	3417
1	1704	3418
1	1686	3419
1	1654	3420
1	1629	3421
1	1603	3422
1	1579	3423
1	1553	3424
1	1527	3425
1	1515	3426
1	1510	3427
1	1520	3428
1	1556	3429
1	1598	3430
1	1635	3431
1	1669	3432
1	1703	3433
1	1737	3434
1	1754	3435
1	1769	3436
1	1782	3437
1	1781	3438
1	1764	3439
1	1736	3440
1	1691	3441
1	1646	3442
1	1605	3443
1	1557	3444
1	1529	3445
1	1517	3446
1	1520	3447
1	1539	3448
1	1567	3449
1	1595	3450
1	1607	3451
1	1629	3452
1	1642	3453
1	1652	3454
1	1669	3455
1	1688	3456
1	1713	3457
1	1725	3458
1	1724	3459
1	1701	3460
1	1665	3461
1	1625	3462
1	1586	3463
1	1550	3464
1	1503	3465
1	1478	3466
1	1450	3467
1	1431	3468
1	1422	3469
1	1427	3470
1	1443	3471
1	1471	3472
1	1501	3473
1	1535	3474
1	1574	3475
1	1607	3476
1	1635	3477
1	1660	3478
1	1672	3479
1	1670	3480
1	1663	3481
1	1652	3482
1	1638	3483
1	1619	3484
1	1607	3485
1	1593	3486
1	1581	3487
1	1571	3488
1	1572	3489
1	1585	3490
1	1602	3491
1	1611	3492
1	1628	3493
1	1639	3494
1	1644	3495
1	1645	3496
1	1644	3497
1	1638	3498
1	1625	3499
1	1611	3500
1	1590	3501
1	1571	3502
1	1553	3503
1	1534	3504
1	1528	3505
1	1529	3506
1	1541	3507
1	1556	3508
1	1584	3509
1	1620	3510
1	1647	3511
1	1681	3512
1	1694	3513
1	1701	3514
1	1703	3515
1	1686	3516
1	1664	3517
1	1639	3518
1	1610	3519
1	1643	3540
1	1616	3541
1	1585	3542
1	1557	3543
1	1534	3544
1	1519	3545
1	1508	3546
1	1510	3547
1	1529	3548
1	1555	3549
1	1600	3550
1	1649	3551
1	1698	3552
1	1735	3553
1	1754	3554
1	1753	3555
1	1749	3556
1	1736	3557
1	1720	3558
1	1702	3559
1	1581	3540
1	1546	3541
1	1515	3542
1	1503	3543
1	1500	3544
1	1503	3545
1	1516	3546
1	1539	3547
1	1573	3548
1	1615	3549
1	1665	3550
1	1712	3551
1	1747	3552
1	1764	3553
1	1778	3554
1	1770	3555
1	1757	3556
1	1739	3557
1	1715	3558
1	1688	3559
1	1683	3560
1	1651	3561
1	1618	3562
1	1589	3563
1	1563	3564
1	1544	3565
1	1526	3566
1	1512	3567
1	1505	3568
1	1507	3569
1	1504	3570
1	1514	3571
1	1532	3572
1	1564	3573
1	1606	3574
1	1654	3575
1	1689	3576
1	1724	3577
1	1749	3578
1	1762	3579
1	1584	3600
1	1566	3601
1	1544	3602
1	1529	3603
1	1512	3604
1	1503	3605
1	1501	3606
1	1503	3607
1	1517	3608
1	1531	3609
1	1553	3610
1	1575	3611
1	1596	3612
1	1609	3613
1	1625	3614
1	1639	3615
1	1652	3616
1	1660	3617
1	1656	3618
1	1652	3619
1	1751	3580
1	1735	3581
1	1708	3582
1	1677	3583
1	1652	3584
1	1632	3585
1	1613	3586
1	1605	3587
1	1604	3588
1	1607	3589
1	1626	3590
1	1638	3591
1	1647	3592
1	1657	3593
1	1662	3594
1	1660	3595
1	1657	3596
1	1646	3597
1	1633	3598
1	1612	3599
1	1649	3620
1	1645	3621
1	1632	3622
1	1626	3623
1	1625	3624
1	1611	3625
1	1607	3626
1	1607	3627
1	1611	3628
1	1622	3629
1	1641	3630
1	1661	3631
1	1683	3632
1	1699	3633
1	1713	3634
1	1721	3635
1	1715	3636
1	1699	3637
1	1672	3638
1	1653	3639
1	1621	3640
1	1592	3641
1	1564	3642
1	1543	3643
1	1518	3644
1	1485	3645
1	1475	3646
1	1472	3647
1	1480	3648
1	1503	3649
1	1540	3650
1	1572	3651
1	1604	3652
1	1631	3653
1	1654	3654
1	1671	3655
1	1683	3656
1	1685	3657
1	1678	3658
1	1661	3659
1	1644	3660
1	1636	3661
1	1629	3662
1	1620	3663
1	1607	3664
1	1593	3665
1	1575	3666
1	1564	3667
1	1566	3668
1	1585	3669
1	1609	3670
1	1641	3671
1	1670	3672
1	1698	3673
1	1724	3674
1	1739	3675
1	1755	3676
1	1765	3677
1	1767	3678
1	1764	3679
1	1751	3680
1	1738	3681
1	1712	3682
1	1682	3683
1	1644	3684
1	1607	3685
1	1583	3686
1	1569	3687
1	1568	3688
1	1587	3689
1	1619	3690
1	1643	3691
1	1677	3692
1	1706	3693
1	1735	3694
1	1751	3695
1	1768	3696
1	1769	3697
1	1756	3698
1	1741	3699
1	1725	3700
1	1710	3701
1	1699	3702
1	1691	3703
1	1686	3704
1	1670	3705
1	1660	3706
1	1659	3707
1	1661	3708
1	1674	3709
1	1697	3710
1	1713	3711
1	1726	3712
1	1739	3713
1	1760	3714
1	1782	3715
1	1796	3716
1	1801	3717
1	1793	3718
1	1778	3719
1	1741	3720
1	1713	3721
1	1685	3722
1	1652	3723
1	1623	3724
1	1595	3725
1	1580	3726
1	1567	3727
1	1555	3728
1	1561	3729
1	1566	3730
1	1569	3731
1	1580	3732
1	1594	3733
1	1615	3734
1	1626	3735
1	1634	3736
1	1641	3737
1	1642	3738
1	1636	3739
1	1629	3740
1	1611	3741
1	1594	3742
1	1585	3743
1	1581	3744
1	1581	3745
1	1575	3746
1	1560	3747
1	1548	3748
1	1543	3749
1	1546	3750
1	1555	3751
1	1572	3752
1	1585	3753
1	1594	3754
1	1605	3755
1	1605	3756
1	1594	3757
1	1575	3758
1	1550	3759
1	1644	3800
1	1623	3801
1	1607	3802
1	1594	3803
1	1584	3804
1	1580	3805
1	1579	3806
1	1581	3807
1	1593	3808
1	1616	3809
1	1647	3810
1	1671	3811
1	1704	3812
1	1737	3813
1	1769	3814
1	1807	3815
1	1831	3816
1	1849	3817
1	1857	3818
1	1856	3819
1	1525	3760
1	1499	3761
1	1476	3762
1	1461	3763
1	1453	3764
1	1458	3765
1	1473	3766
1	1503	3767
1	1548	3768
1	1593	3769
1	1643	3770
1	1684	3771
1	1723	3772
1	1762	3773
1	1791	3774
1	1817	3775
1	1818	3776
1	1800	3777
1	1764	3778
1	1718	3779
1	1656	3780
1	1620	3781
1	1581	3782
1	1544	3783
1	1508	3784
1	1489	3785
1	1492	3786
1	1503	3787
1	1517	3788
1	1541	3789
1	1569	3790
1	1596	3791
1	1622	3792
1	1647	3793
1	1665	3794
1	1675	3795
1	1679	3796
1	1675	3797
1	1669	3798
1	1659	3799
1	1848	3820
1	1843	3821
1	1826	3822
1	1818	3823
1	1814	3824
1	1816	3825
1	1831	3826
1	1859	3827
1	1907	3828
1	1963	3829
1	2026	3830
1	2089	3831
1	2148	3832
1	2197	3833
1	2250	3834
1	2266	3835
1	2262	3836
1	2236	3837
1	2184	3838
1	2123	3839
1	2021	3840
1	1956	3841
1	1863	3842
1	1764	3843
1	1665	3844
1	1574	3845
1	1503	3846
1	1449	3847
1	1422	3848
1	1409	3849
1	1409	3850
1	1416	3851
1	1427	3852
1	1441	3853
1	1463	3854
1	1479	3855
1	1489	3856
1	1494	3857
1	1494	3858
1	1491	3859
1	1489	3860
1	1475	3861
1	1450	3862
1	1436	3863
1	1425	3864
1	1429	3865
1	1436	3866
1	1450	3867
1	1475	3868
1	1502	3869
1	1528	3870
1	1546	3871
1	1569	3872
1	1586	3873
1	1605	3874
1	1618	3875
1	1623	3876
1	1620	3877
1	1608	3878
1	1593	3879
1	1685	3900
1	1657	3901
1	1622	3902
1	1587	3903
1	1553	3904
1	1529	3905
1	1525	3906
1	1525	3907
1	1533	3908
1	1548	3909
1	1572	3910
1	1600	3911
1	1633	3912
1	1661	3913
1	1693	3914
1	1717	3915
1	1724	3916
1	1725	3917
1	1712	3918
1	1688	3919
1	1574	3900
1	1553	3901
1	1537	3902
1	1530	3903
1	1532	3904
1	1542	3905
1	1552	3906
1	1557	3907
1	1567	3908
1	1579	3909
1	1587	3910
1	1611	3911
1	1643	3912
1	1670	3913
1	1695	3914
1	1712	3915
1	1720	3916
1	1727	3917
1	1728	3918
1	1716	3919
1	1662	3920
1	1626	3921
1	1584	3922
1	1566	3923
1	1559	3924
1	1555	3925
1	1564	3926
1	1577	3927
1	1593	3928
1	1611	3929
1	1629	3930
1	1647	3931
1	1660	3932
1	1669	3933
1	1673	3934
1	1674	3935
1	1672	3936
1	1677	3937
1	1682	3938
1	1682	3939
1	1664	3980
1	1656	3981
1	1639	3982
1	1629	3983
1	1619	3984
1	1609	3985
1	1607	3986
1	1611	3987
1	1625	3988
1	1638	3989
1	1662	3990
1	1686	3991
1	1712	3992
1	1733	3993
1	1751	3994
1	1765	3995
1	1786	3996
1	1791	3997
1	1789	3998
1	1778	3999
1	1710	3960
1	1688	3961
1	1670	3962
1	1649	3963
1	1626	3964
1	1617	3965
1	1608	3966
1	1613	3967
1	1628	3968
1	1638	3969
1	1654	3970
1	1665	3971
1	1680	3972
1	1687	3973
1	1694	3974
1	1700	3975
1	1697	3976
1	1699	3977
1	1697	3978
1	1683	3979
1	1661	3940
1	1639	3941
1	1616	3942
1	1592	3943
1	1562	3944
1	1544	3945
1	1529	3946
1	1529	3947
1	1532	3948
1	1542	3949
1	1555	3950
1	1581	3951
1	1604	3952
1	1625	3953
1	1645	3954
1	1664	3955
1	1685	3956
1	1700	3957
1	1712	3958
1	1712	3959
1	1757	4000
1	1728	4001
1	1699	4002
1	1670	4003
1	1647	4004
1	1637	4005
1	1631	4006
1	1641	4006
1	1661	4008
1	1684	4009
1	1701	4010
1	1724	4011
1	1737	4012
1	1742	4013
1	1746	4014
1	1746	4014
1	1740	4016
1	1733	4017
1	1721	4018
1	1711	4019
1	1705	4020
1	1697	4021
1	1686	4022
1	1675	4022
1	1663	4024
1	1660	4025
1	1670	4026
1	1680	4027
1	1690	4028
1	1710	4029
1	1719	4030
1	1736	4030
1	1753	4032
1	1778	4033
1	1810	4034
1	1836	4035
1	1843	4036
1	1846	4037
1	1841	4038
1	1823	4038
1	1809	4040
1	1791	4041
1	1783	4042
1	1787	4043
1	1782	4044
1	1779	4045
1	1778	4046
1	1783	4046
1	1791	4048
1	1800	4049
1	1813	4050
1	1817	4051
1	1838	4052
1	1861	4053
1	1888	4054
1	1918	4054
1	1944	4056
1	1952	4057
1	1952	4058
1	1948	4059
1	1926	4060
1	1901	4061
1	1870	4062
1	1843	4062
1	1818	4064
1	1801	4065
1	1788	4066
1	1791	4067
1	1800	4068
1	1818	4069
1	1845	4070
1	1868	4070
1	1887	4072
1	1904	4073
1	1916	4074
1	1922	4075
1	1920	4076
1	1900	4077
1	1877	4078
1	1847	4078
1	1818	4080
1	1785	4081
1	1764	4082
1	1751	4083
1	1744	4084
1	1742	4085
1	1746	4086
1	1755	4086
1	1772	4088
1	1796	4089
1	1830	4090
1	1866	4091
1	1895	4092
1	1910	4093
1	1924	4094
1	1940	4094
1	1937	4096
1	1929	4097
1	1917	4098
1	1888	4099
1	1856	4100
1	1809	4101
1	1751	4102
1	1703	4103
1	1659	4104
1	1621	4105
1	1606	4106
1	1608	4107
1	1634	4108
1	1667	4109
1	1703	4110
1	1736	4111
1	1769	4112
1	1798	4113
1	1827	4114
1	1843	4115
1	1838	4116
1	1818	4117
1	1783	4118
1	1742	4119
1	1697	4120
1	1652	4121
1	1604	4122
1	1573	4123
1	1537	4124
1	1513	4125
1	1503	4126
1	1503	4127
1	1529	4128
1	1562	4129
1	1602	4130
1	1634	4131
1	1659	4132
1	1672	4133
1	1695	4134
1	1709	4135
1	1716	4136
1	1712	4137
1	1701	4138
1	1687	4139
1	1672	4140
1	1642	4141
1	1616	4142
1	1605	4143
1	1593	4144
1	1582	4145
1	1581	4146
1	1581	4147
1	1584	4148
1	1594	4149
1	1607	4150
1	1618	4151
1	1626	4152
1	1634	4153
1	1634	4154
1	1639	4155
1	1634	4156
1	1633	4157
1	1625	4158
1	1611	4159
1	1599	4160
1	1575	4161
1	1543	4162
1	1514	4163
1	1483	4164
1	1461	4165
1	1441	4166
1	1435	4167
1	1443	4168
1	1471	4169
1	1503	4170
1	1535	4171
1	1570	4172
1	1596	4173
1	1612	4174
1	1634	4175
1	1642	4176
1	1648	4177
1	1647	4178
1	1635	4179
1	1607	4180
1	1571	4181
1	1531	4182
1	1502	4183
1	1478	4184
1	1469	4185
1	1474	4186
1	1485	4187
1	1512	4188
1	1546	4189
1	1591	4190
1	1633	4191
1	1661	4192
1	1687	4193
1	1708	4194
1	1719	4195
1	1722	4196
1	1717	4197
1	1699	4198
1	1673	4199
1	1634	4200
1	1592	4201
1	1553	4202
1	1521	4203
1	1498	4204
1	1490	4205
1	1490	4206
1	1485	4207
1	1490	4208
1	1507	4209
1	1530	4210
1	1554	4211
1	1576	4212
1	1599	4213
1	1629	4214
1	1647	4215
1	1652	4216
1	1653	4217
1	1644	4218
1	1618	4219
1	1592	4220
1	1553	4221
1	1511	4222
1	1498	4223
1	1490	4224
1	1488	4225
1	1497	4226
1	1511	4227
1	1539	4228
1	1573	4229
1	1607	4230
1	1643	4231
1	1679	4232
1	1710	4233
1	1734	4234
1	1755	4235
1	1762	4236
1	1755	4237
1	1735	4238
1	1712	4239
1	1686	4240
1	1660	4241
1	1631	4242
1	1605	4243
1	1575	4244
1	1548	4245
1	1529	4246
1	1518	4247
1	1520	4248
1	1530	4249
1	1553	4250
1	1582	4251
1	1607	4252
1	1633	4253
1	1652	4254
1	1664	4255
1	1672	4256
1	1672	4257
1	1660	4258
1	1634	4259
1	1623	4280
1	1605	4281
1	1574	4282
1	1544	4283
1	1511	4284
1	1482	4285
1	1464	4286
1	1454	4287
1	1456	4288
1	1464	4289
1	1476	4290
1	1490	4291
1	1520	4292
1	1551	4293
1	1579	4294
1	1613	4295
1	1647	4296
1	1672	4297
1	1686	4298
1	1686	4299
1	1603	4260
1	1567	4261
1	1542	4262
1	1521	4263
1	1497	4264
1	1487	4265
1	1476	4266
1	1476	4267
1	1491	4268
1	1516	4269
1	1546	4270
1	1575	4271
1	1603	4272
1	1623	4273
1	1643	4274
1	1665	4275
1	1672	4276
1	1672	4277
1	1656	4278
1	1635	4279
1	1672	4300
1	1647	4301
1	1610	4302
1	1579	4303
1	1547	4304
1	1521	4305
1	1493	4306
1	1479	4307
1	1481	4308
1	1492	4309
1	1517	4310
1	1552	4311
1	1587	4312
1	1622	4313
1	1661	4314
1	1700	4315
1	1728	4316
1	1746	4317
1	1755	4318
1	1756	4319
1	1750	4320
1	1727	4321
1	1701	4322
1	1678	4323
1	1644	4324
1	1602	4325
1	1572	4326
1	1542	4327
1	1520	4328
1	1521	4329
1	1531	4330
1	1553	4331
1	1580	4332
1	1607	4333
1	1625	4334
1	1636	4335
1	1634	4336
1	1631	4337
1	1616	4338
1	1595	4339
1	1577	4340
1	1541	4341
1	1503	4342
1	1474	4343
1	1441	4344
1	1418	4345
1	1402	4346
1	1400	4347
1	1414	4348
1	1436	4349
1	1465	4350
1	1498	4351
1	1542	4352
1	1584	4353
1	1622	4354
1	1661	4355
1	1690	4356
1	1698	4357
1	1697	4358
1	1681	4359
1	1573	4380
1	1541	4381
1	1516	4382
1	1499	4383
1	1472	4384
1	1453	4385
1	1445	4386
1	1440	4387
1	1447	4388
1	1463	4389
1	1485	4390
1	1523	4391
1	1569	4392
1	1619	4393
1	1661	4394
1	1698	4395
1	1708	4396
1	1712	4397
1	1704	4398
1	1681	4399
1	1652	4360
1	1624	4361
1	1593	4362
1	1571	4363
1	1549	4364
1	1535	4365
1	1525	4366
1	1521	4367
1	1524	4368
1	1529	4369
1	1556	4370
1	1585	4371
1	1613	4372
1	1635	4373
1	1649	4374
1	1657	4375
1	1656	4376
1	1649	4377
1	1634	4378
1	1607	4379
1	1651	4400
1	1619	4401
1	1572	4402
1	1529	4403
1	1491	4404
1	1464	4405
1	1450	4406
1	1449	4407
1	1461	4408
1	1477	4409
1	1498	4410
1	1502	4411
1	1507	4412
1	1511	4413
1	1517	4414
1	1539	4415
1	1553	4416
1	1560	4417
1	1570	4418
1	1581	4419
1	1598	4420
1	1612	4421
1	1620	4422
1	1624	4423
1	1620	4424
1	1607	4425
1	1585	4426
1	1566	4427
1	1551	4428
1	1539	4429
1	1552	4430
1	1563	4431
1	1581	4432
1	1596	4433
1	1619	4434
1	1638	4435
1	1660	4436
1	1671	4437
1	1671	4438
1	1660	4439
1	1643	4440
1	1615	4441
1	1591	4442
1	1574	4443
1	1551	4444
1	1532	4445
1	1521	4446
1	1506	4447
1	1503	4448
1	1508	4449
1	1520	4450
1	1535	4451
1	1555	4452
1	1579	4453
1	1600	4454
1	1622	4455
1	1632	4456
1	1641	4457
1	1638	4458
1	1634	4459
1	1635	4460
1	1625	4461
1	1603	4462
1	1579	4463
1	1555	4464
1	1540	4465
1	1536	4466
1	1540	4467
1	1553	4468
1	1573	4469
1	1600	4470
1	1622	4471
1	1647	4472
1	1659	4473
1	1668	4474
1	1686	4475
1	1686	4476
1	1670	4477
1	1646	4478
1	1615	4479
1	1581	4480
1	1543	4481
1	1498	4482
1	1463	4483
1	1436	4484
1	1422	4485
1	1424	4486
1	1440	4487
1	1469	4488
1	1501	4489
1	1540	4490
1	1581	4491
1	1622	4492
1	1649	4493
1	1665	4494
1	1681	4495
1	1686	4496
1	1695	4497
1	1692	4498
1	1684	4499
1	1665	4500
1	1638	4501
1	1618	4502
1	1597	4503
1	1572	4504
1	1555	4505
1	1539	4506
1	1517	4507
1	1497	4508
1	1485	4509
1	1479	4510
1	1479	4511
1	1485	4512
1	1493	4513
1	1507	4514
1	1521	4515
1	1526	4516
1	1531	4517
1	1538	4518
1	1538	4519
1	1544	4520
1	1540	4521
1	1529	4522
1	1523	4523
1	1521	4524
1	1507	4525
1	1500	4526
1	1485	4527
1	1477	4528
1	1481	4529
1	1501	4530
1	1529	4531
1	1564	4532
1	1600	4533
1	1625	4534
1	1652	4535
1	1661	4536
1	1672	4537
1	1674	4538
1	1679	4539
1	1686	4580
1	1647	4581
1	1609	4582
1	1587	4583
1	1581	4584
1	1586	4585
1	1598	4586
1	1611	4587
1	1634	4588
1	1660	4589
1	1688	4590
1	1707	4591
1	1731	4592
1	1749	4593
1	1762	4594
1	1785	4595
1	1795	4596
1	1795	4597
1	1787	4598
1	1764	4599
1	1752	4560
1	1713	4561
1	1678	4562
1	1639	4563
1	1600	4564
1	1579	4565
1	1555	4566
1	1550	4567
1	1560	4568
1	1591	4569
1	1632	4570
1	1665	4571
1	1701	4572
1	1736	4573
1	1759	4574
1	1773	4575
1	1773	4576
1	1765	4577
1	1749	4578
1	1715	4579
1	1664	4540
1	1652	4541
1	1641	4542
1	1633	4543
1	1625	4544
1	1625	4545
1	1621	4546
1	1624	4547
1	1634	4548
1	1642	4549
1	1664	4550
1	1688	4551
1	1705	4552
1	1720	4553
1	1740	4554
1	1760	4555
1	1773	4556
1	1786	4557
1	1786	4558
1	1773	4559
1	1737	4600
1	1708	4601
1	1673	4602
1	1650	4603
1	1631	4604
1	1618	4605
1	1607	4606
1	1607	4607
1	1619	4608
1	1633	4609
1	1650	4610
1	1656	4611
1	1660	4612
1	1663	4613
1	1669	4614
1	1670	4615
1	1672	4616
1	1672	4617
1	1667	4618
1	1656	4619
1	1634	4620
1	1606	4621
1	1581	4622
1	1564	4623
1	1555	4624
1	1553	4625
1	1562	4626
1	1572	4627
1	1590	4628
1	1623	4629
1	1638	4630
1	1648	4631
1	1659	4632
1	1667	4633
1	1678	4634
1	1688	4635
1	1699	4636
1	1708	4637
1	1710	4638
1	1696	4639
1	1685	4640
1	1654	4641
1	1620	4642
1	1593	4643
1	1574	4644
1	1566	4645
1	1563	4646
1	1565	4647
1	1574	4648
1	1589	4649
1	1608	4650
1	1620	4651
1	1634	4652
1	1648	4653
1	1659	4654
1	1669	4655
1	1679	4656
1	1686	4657
1	1691	4658
1	1692	4659
1	1685	4660
1	1670	4661
1	1656	4662
1	1637	4663
1	1618	4664
1	1600	4665
1	1584	4666
1	1576	4667
1	1572	4668
1	1576	4669
1	1595	4670
1	1617	4671
1	1645	4672
1	1667	4673
1	1687	4674
1	1707	4675
1	1720	4676
1	1731	4677
1	1724	4678
1	1708	4679
1	1672	4680
1	1629	4681
1	1593	4682
1	1561	4683
1	1531	4684
1	1517	4685
1	1513	4686
1	1508	4687
1	1516	4688
1	1539	4689
1	1567	4690
1	1602	4691
1	1639	4692
1	1681	4693
1	1717	4694
1	1751	4695
1	1785	4696
1	1824	4697
1	1859	4698
1	1894	4699
1	1929	4700
1	1961	4701
1	1977	4702
1	1996	4703
1	2012	4704
1	2037	4705
1	2066	4706
1	2105	4707
1	2143	4708
1	2182	4709
1	2209	4710
1	2220	4711
1	2233	4712
1	2222	4713
1	2210	4714
1	2191	4715
1	2153	4716
1	2104	4717
1	2039	4718
1	1969	4719
1	1635	4740
1	1607	4741
1	1567	4742
1	1529	4743
1	1500	4744
1	1485	4745
1	1487	4746
1	1494	4747
1	1513	4748
1	1539	4749
1	1569	4750
1	1595	4751
1	1616	4752
1	1633	4753
1	1647	4754
1	1667	4755
1	1681	4756
1	1690	4757
1	1688	4758
1	1675	4759
1	1890	4720
1	1803	4721
1	1703	4722
1	1643	4723
1	1561	4724
1	1491	4725
1	1436	4726
1	1395	4727
1	1366	4728
1	1353	4729
1	1361	4730
1	1373	4731
1	1394	4732
1	1417	4733
1	1458	4734
1	1502	4735
1	1543	4736
1	1580	4737
1	1607	4738
1	1632	4739
1	1665	4760
1	1643	4761
1	1618	4762
1	1598	4763
1	1583	4764
1	1572	4765
1	1562	4766
1	1560	4767
1	1569	4768
1	1586	4769
1	1611	4770
1	1633	4771
1	1654	4772
1	1667	4773
1	1672	4774
1	1686	4775
1	1690	4776
1	1682	4777
1	1656	4778
1	1611	4779
1	1564	4780
1	1518	4781
1	1471	4782
1	1433	4783
1	1407	4784
1	1393	4785
1	1392	4786
1	1400	4787
1	1422	4788
1	1443	4789
1	1479	4790
1	1531	4791
1	1581	4792
1	1622	4793
1	1664	4794
1	1705	4795
1	1736	4796
1	1757	4797
1	1770	4798
1	1777	4799
1	1773	4800
1	1752	4801
1	1729	4802
1	1698	4803
1	1668	4804
1	1644	4805
1	1634	4806
1	1625	4807
1	1629	4808
1	1635	4809
1	1654	4810
1	1673	4811
1	1697	4812
1	1716	4813
1	1738	4814
1	1747	4815
1	1740	4816
1	1735	4817
1	1720	4818
1	1698	4819
1	1677	4820
1	1648	4821
1	1610	4822
1	1589	4823
1	1566	4824
1	1537	4825
1	1513	4826
1	1501	4827
1	1497	4828
1	1504	4829
1	1518	4830
1	1544	4831
1	1581	4832
1	1628	4833
1	1678	4834
1	1724	4835
1	1752	4836
1	1768	4837
1	1774	4838
1	1776	4839
1	1634	4860
1	1596	4861
1	1572	4862
1	1562	4863
1	1562	4864
1	1580	4865
1	1593	4866
1	1607	4867
1	1629	4868
1	1652	4869
1	1681	4870
1	1708	4871
1	1738	4872
1	1764	4873
1	1791	4874
1	1817	4875
1	1816	4876
1	1810	4877
1	1791	4878
1	1764	4879
1	1738	4880
1	1708	4881
1	1671	4882
1	1636	4883
1	1606	4884
1	1580	4885
1	1562	4886
1	1555	4887
1	1558	4888
1	1574	4889
1	1607	4890
1	1638	4891
1	1682	4892
1	1712	4893
1	1738	4894
1	1760	4895
1	1775	4896
1	1791	4897
1	1798	4898
1	1794	4899
1	1760	4840
1	1737	4841
1	1710	4842
1	1683	4843
1	1659	4844
1	1641	4845
1	1616	4846
1	1602	4847
1	1593	4848
1	1587	4849
1	1590	4850
1	1607	4851
1	1631	4852
1	1660	4853
1	1687	4854
1	1715	4855
1	1734	4856
1	1733	4857
1	1712	4858
1	1674	4859
1	1777	4900
1	1759	4901
1	1743	4902
1	1721	4903
1	1699	4904
1	1682	4905
1	1661	4906
1	1649	4907
1	1646	4908
1	1647	4909
1	1660	4910
1	1670	4911
1	1688	4912
1	1708	4913
1	1728	4914
1	1750	4915
1	1764	4916
1	1769	4917
1	1769	4918
1	1769	4919
1	1769	4920
1	1764	4921
1	1760	4922
1	1764	4923
1	1764	4924
1	1764	4925
1	1779	4926
1	1782	4927
1	1788	4928
1	1795	4929
1	1800	4930
1	1808	4931
1	1817	4932
1	1827	4933
1	1839	4934
1	1847	4935
1	1854	4936
1	1856	4937
1	1849	4938
1	1836	4939
1	1811	4940
1	1773	4941
1	1749	4942
1	1739	4943
1	1736	4944
1	1731	4945
1	1733	4946
1	1738	4947
1	1751	4948
1	1766	4949
1	1786	4950
1	1800	4951
1	1828	4952
1	1845	4953
1	1862	4954
1	1871	4955
1	1887	4956
1	1895	4957
1	1893	4958
1	1885	4959
1	1875	4960
1	1868	4961
1	1854	4962
1	1841	4963
1	1827	4964
1	1814	4965
1	1790	4966
1	1764	4967
1	1744	4968
1	1731	4969
1	1730	4970
1	1735	4971
1	1746	4972
1	1764	4973
1	1791	4974
1	1817	4975
1	1841	4976
1	1856	4977
1	1870	4978
1	1872	4979
1	1859	4980
1	1843	4981
1	1818	4982
1	1790	4983
1	1759	4984
1	1736	4985
1	1713	4986
1	1709	4987
1	1709	4988
1	1712	4989
1	1710	4990
1	1701	4991
1	1700	4992
1	1704	4993
1	1703	4994
1	1697	4995
1	1679	4996
1	1658	4997
1	1634	4998
1	1608	4999
1	1584	5000
1	1566	5001
1	1545	5002
1	1529	5003
1	1520	5004
1	1517	5005
1	1520	5006
1	1525	5007
1	1537	5008
1	1564	5009
1	1603	5010
1	1639	5011
1	1678	5012
1	1705	5013
1	1719	5014
1	1729	5015
1	1721	5016
1	1710	5017
1	1697	5018
1	1683	5019
1	1660	5020
1	1634	5021
1	1605	5022
1	1593	5023
1	1583	5024
1	1581	5025
1	1580	5026
1	1581	5027
1	1584	5028
1	1589	5029
1	1587	5030
1	1585	5031
1	1582	5032
1	1584	5033
1	1597	5034
1	1607	5035
1	1612	5036
1	1609	5037
1	1607	5038
1	1599	5039
1	1586	5040
1	1562	5041
1	1542	5042
1	1526	5043
1	1502	5044
1	1479	5045
1	1471	5046
1	1467	5047
1	1474	5048
1	1478	5049
1	1494	5050
1	1520	5051
1	1557	5052
1	1592	5053
1	1620	5054
1	1644	5055
1	1660	5056
1	1671	5057
1	1673	5058
1	1659	5059
1	1646	5080
1	1645	5081
1	1639	5082
1	1638	5083
1	1636	5084
1	1634	5085
1	1626	5086
1	1611	5087
1	1605	5088
1	1597	5089
1	1597	5090
1	1595	5091
1	1603	5092
1	1620	5093
1	1643	5094
1	1669	5095
1	1686	5096
1	1697	5097
1	1694	5098
1	1686	5099
1	1633	5060
1	1589	5061
1	1543	5062
1	1500	5063
1	1466	5064
1	1442	5065
1	1431	5066
1	1427	5067
1	1434	5068
1	1442	5069
1	1450	5070
1	1461	5071
1	1487	5072
1	1512	5073
1	1545	5074
1	1584	5075
1	1618	5076
1	1643	5077
1	1656	5078
1	1655	5079
1	1672	5100
1	1648	5101
1	1623	5102
1	1595	5103
1	1566	5104
1	1540	5105
1	1530	5106
1	1524	5107
1	1521	5108
1	1526	5109
1	1536	5110
1	1553	5111
1	1571	5112
1	1595	5113
1	1620	5114
1	1645	5115
1	1654	5116
1	1660	5117
1	1651	5118
1	1638	5119
1	1625	5120
1	1594	5121
1	1552	5122
1	1530	5123
1	1512	5124
1	1490	5125
1	1474	5126
1	1463	5127
1	1456	5128
1	1453	5129
1	1461	5130
1	1476	5131
1	1501	5132
1	1533	5133
1	1575	5134
1	1616	5135
1	1656	5136
1	1686	5137
1	1707	5138
1	1715	5139
1	1707	5140
1	1688	5141
1	1675	5142
1	1665	5143
1	1660	5144
1	1651	5145
1	1636	5146
1	1629	5147
1	1623	5148
1	1624	5149
1	1626	5150
1	1644	5151
1	1661	5152
1	1686	5153
1	1703	5154
1	1719	5155
1	1731	5156
1	1737	5157
1	1737	5158
1	1719	5159
1	1697	5160
1	1660	5161
1	1634	5162
1	1612	5163
1	1591	5164
1	1572	5165
1	1555	5166
1	1543	5167
1	1535	5168
1	1541	5169
1	1566	5170
1	1607	5171
1	1656	5172
1	1697	5173
1	1736	5174
1	1769	5175
1	1791	5176
1	1813	5177
1	1814	5178
1	1799	5179
1	1786	5180
1	1752	5181
1	1712	5182
1	1672	5183
1	1636	5184
1	1607	5185
1	1590	5186
1	1581	5187
1	1581	5188
1	1595	5189
1	1609	5190
1	1623	5191
1	1646	5192
1	1667	5193
1	1683	5194
1	1700	5195
1	1706	5196
1	1707	5197
1	1704	5198
1	1691	5199
1	1671	5200
1	1635	5201
1	1599	5202
1	1566	5203
1	1541	5204
1	1529	5205
1	1525	5206
1	1534	5207
1	1557	5208
1	1587	5209
1	1623	5210
1	1661	5211
1	1693	5212
1	1720	5213
1	1739	5214
1	1755	5215
1	1762	5216
1	1759	5217
1	1751	5218
1	1737	5219
1	1711	5220
1	1665	5221
1	1621	5222
1	1575	5223
1	1529	5224
1	1492	5225
1	1476	5226
1	1463	5227
1	1476	5228
1	1490	5229
1	1512	5230
1	1547	5231
1	1595	5232
1	1644	5233
1	1693	5234
1	1742	5235
1	1776	5236
1	1795	5237
1	1800	5238
1	1788	5239
1	1769	5240
1	1744	5241
1	1721	5242
1	1701	5243
1	1679	5244
1	1657	5245
1	1643	5246
1	1640	5247
1	1642	5248
1	1654	5249
1	1682	5250
1	1710	5251
1	1744	5252
1	1767	5253
1	1777	5254
1	1769	5255
1	1754	5256
1	1721	5257
1	1679	5258
1	1628	5259
1	1581	5260
1	1547	5261
1	1529	5262
1	1526	5263
1	1530	5264
1	1541	5265
1	1555	5266
1	1581	5267
1	1609	5268
1	1636	5269
1	1662	5270
1	1686	5271
1	1711	5272
1	1738	5273
1	1764	5274
1	1787	5275
1	1799	5276
1	1796	5277
1	1785	5278
1	1764	5279
1	1725	5280
1	1683	5281
1	1639	5282
1	1602	5283
1	1571	5284
1	1554	5285
1	1540	5286
1	1537	5287
1	1546	5288
1	1567	5289
1	1592	5290
1	1611	5291
1	1632	5292
1	1646	5293
1	1660	5294
1	1672	5295
1	1674	5296
1	1674	5297
1	1667	5298
1	1656	5299
1	1642	5300
1	1636	5301
1	1631	5302
1	1625	5303
1	1621	5304
1	1620	5305
1	1623	5306
1	1628	5307
1	1634	5308
1	1638	5309
1	1644	5310
1	1644	5311
1	1655	5312
1	1662	5313
1	1670	5314
1	1685	5315
1	1688	5316
1	1694	5317
1	1690	5318
1	1684	5319
1	1679	5320
1	1670	5321
1	1655	5322
1	1656	5323
1	1660	5324
1	1665	5325
1	1677	5326
1	1686	5327
1	1691	5328
1	1699	5329
1	1724	5330
1	1755	5331
1	1791	5332
1	1821	5333
1	1854	5334
1	1868	5335
1	1874	5336
1	1874	5337
1	1867	5338
1	1847	5339
1	1818	5340
1	1769	5341
1	1729	5342
1	1692	5343
1	1661	5344
1	1636	5345
1	1624	5346
1	1610	5347
1	1603	5348
1	1602	5349
1	1605	5350
1	1620	5351
1	1645	5352
1	1667	5353
1	1684	5354
1	1694	5355
1	1695	5356
1	1706	5357
1	1712	5358
1	1714	5359
1	1712	5360
1	1701	5361
1	1686	5362
1	1670	5363
1	1665	5364
1	1671	5365
1	1686	5366
1	1704	5367
1	1726	5368
1	1751	5369
1	1778	5370
1	1799	5371
1	1821	5372
1	1842	5373
1	1857	5374
1	1883	5375
1	1893	5376
1	1895	5377
1	1884	5378
1	1869	5379
1	1846	5380
1	1818	5381
1	1787	5382
1	1752	5383
1	1720	5384
1	1688	5385
1	1661	5386
1	1647	5387
1	1647	5388
1	1651	5389
1	1671	5390
1	1697	5391
1	1725	5392
1	1751	5393
1	1773	5394
1	1799	5395
1	1828	5396
1	1839	5397
1	1840	5398
1	1828	5399
1	1813	5400
1	1778	5401
1	1753	5402
1	1733	5403
1	1712	5404
1	1697	5405
1	1691	5406
1	1681	5407
1	1668	5408
1	1660	5409
1	1655	5410
1	1651	5411
1	1652	5412
1	1656	5413
1	1664	5414
1	1683	5415
1	1687	5416
1	1692	5417
1	1688	5418
1	1677	5419
1	1660	5420
1	1639	5421
1	1625	5422
1	1607	5423
1	1594	5424
1	1571	5425
1	1558	5426
1	1553	5427
1	1554	5428
1	1557	5429
1	1572	5430
1	1592	5431
1	1616	5432
1	1641	5433
1	1668	5434
1	1690	5435
1	1698	5436
1	1697	5437
1	1677	5438
1	1658	5439
1	1633	5440
1	1603	5441
1	1574	5442
1	1551	5443
1	1529	5444
1	1520	5445
1	1508	5446
1	1507	5447
1	1508	5448
1	1517	5449
1	1528	5450
1	1550	5451
1	1579	5452
1	1619	5453
1	1665	5454
1	1712	5455
1	1749	5456
1	1778	5457
1	1801	5458
1	1817	5459
1	1815	5460
1	1785	5461
1	1754	5462
1	1724	5463
1	1698	5464
1	1681	5465
1	1660	5466
1	1639	5467
1	1634	5468
1	1638	5469
1	1656	5470
1	1679	5471
1	1708	5472
1	1731	5473
1	1753	5474
1	1773	5475
1	1782	5476
1	1791	5477
1	1796	5478
1	1798	5479
1	2184	5500
1	2117	5501
1	2047	5502
1	1969	5503
1	1886	5504
1	1803	5505
1	1724	5506
1	1659	5507
1	1604	5508
1	1556	5509
1	1520	5510
1	1500	5511
1	1490	5512
1	1482	5513
1	1478	5514
1	1481	5515
1	1486	5516
1	1494	5517
1	1498	5518
1	1496	5519
1	1817	5480
1	1825	5481
1	1835	5482
1	1844	5483
1	1854	5484
1	1867	5485
1	1895	5486
1	1934	5487
1	1975	5488
1	2024	5489
1	2079	5490
1	2137	5491
1	2200	5492
1	2254	5493
1	2288	5494
1	2316	5495
1	2326	5496
1	2314	5497
1	2288	5498
1	2243	5499
1	1734	5540
1	1715	5541
1	1701	5542
1	1692	5543
1	1674	5544
1	1658	5545
1	1644	5546
1	1639	5547
1	1639	5548
1	1647	5549
1	1660	5550
1	1669	5551
1	1686	5552
1	1700	5553
1	1711	5554
1	1712	5555
1	1712	5556
1	1699	5557
1	1686	5558
1	1664	5559
1	1490	5520
1	1476	5521
1	1463	5522
1	1450	5523
1	1437	5524
1	1429	5525
1	1433	5526
1	1437	5527
1	1445	5528
1	1472	5529
1	1494	5530
1	1526	5531
1	1557	5532
1	1596	5533
1	1638	5534
1	1681	5535
1	1710	5536
1	1734	5537
1	1743	5538
1	1740	5539
1	1647	5560
1	1629	5561
1	1616	5562
1	1607	5563
1	1589	5564
1	1574	5565
1	1552	5566
1	1531	5567
1	1521	5568
1	1519	5569
1	1530	5570
1	1549	5571
1	1574	5572
1	1604	5573
1	1634	5574
1	1664	5575
1	1689	5576
1	1708	5577
1	1714	5578
1	1712	5579
1	1698	5580
1	1673	5581
1	1649	5582
1	1632	5583
1	1613	5584
1	1598	5585
1	1582	5586
1	1584	5587
1	1595	5588
1	1619	5589
1	1646	5590
1	1671	5591
1	1692	5592
1	1710	5593
1	1718	5594
1	1730	5595
1	1733	5596
1	1738	5597
1	1743	5598
1	1737	5599
1	1712	5600
1	1692	5601
1	1668	5602
1	1647	5603
1	1633	5604
1	1621	5605
1	1618	5606
1	1618	5607
1	1633	5608
1	1659	5609
1	1690	5610
1	1715	5611
1	1737	5612
1	1752	5613
1	1764	5614
1	1777	5615
1	1785	5616
1	1782	5617
1	1776	5618
1	1763	5619
1	1738	5620
1	1706	5621
1	1671	5622
1	1629	5623
1	1594	5624
1	1575	5625
1	1568	5626
1	1572	5627
1	1583	5628
1	1607	5629
1	1634	5630
1	1661	5631
1	1690	5632
1	1712	5633
1	1737	5634
1	1751	5635
1	1756	5636
1	1754	5637
1	1744	5638
1	1724	5639
1	1695	5640
1	1657	5641
1	1620	5642
1	1589	5643
1	1564	5644
1	1544	5645
1	1535	5646
1	1529	5647
1	1536	5648
1	1553	5649
1	1581	5650
1	1620	5651
1	1659	5652
1	1688	5653
1	1713	5654
1	1738	5655
1	1752	5656
1	1764	5657
1	1765	5658
1	1764	5659
1	1705	5680
1	1696	5681
1	1680	5682
1	1659	5683
1	1634	5684
1	1607	5685
1	1586	5686
1	1576	5687
1	1572	5688
1	1580	5689
1	1599	5690
1	1618	5691
1	1647	5692
1	1686	5693
1	1726	5694
1	1766	5695
1	1802	5696
1	1835	5697
1	1854	5698
1	1869	5699
1	1759	5660
1	1742	5661
1	1719	5662
1	1693	5663
1	1672	5664
1	1653	5665
1	1638	5666
1	1631	5667
1	1626	5668
1	1626	5669
1	1634	5670
1	1635	5671
1	1648	5672
1	1660	5673
1	1669	5674
1	1683	5675
1	1693	5676
1	1703	5677
1	1711	5678
1	1710	5679
1	1875	5700
1	1870	5701
1	1866	5702
1	1854	5703
1	1841	5704
1	1823	5705
1	1796	5706
1	1775	5707
1	1762	5708
1	1760	5709
1	1767	5710
1	1792	5711
1	1829	5712
1	1861	5713
1	1895	5714
1	1917	5715
1	1922	5716
1	1926	5717
1	1929	5718
1	1922	5719
1	1913	5720
1	1893	5721
1	1868	5722
1	1841	5723
1	1822	5724
1	1791	5725
1	1773	5726
1	1764	5727
1	1764	5728
1	1780	5729
1	1801	5730
1	1824	5731
1	1843	5732
1	1856	5733
1	1859	5734
1	1856	5735
1	1856	5736
1	1855	5737
1	1846	5738
1	1841	5739
1	1823	5740
1	1809	5741
1	1791	5742
1	1768	5743
1	1741	5744
1	1711	5745
1	1674	5746
1	1647	5747
1	1625	5748
1	1618	5749
1	1623	5750
1	1647	5751
1	1670	5752
1	1691	5753
1	1711	5754
1	1724	5755
1	1736	5756
1	1742	5757
1	1749	5758
1	1736	5759
1	1710	5760
1	1671	5761
1	1634	5762
1	1598	5763
1	1572	5764
1	1555	5765
1	1544	5766
1	1544	5767
1	1549	5768
1	1565	5769
1	1589	5770
1	1613	5771
1	1641	5772
1	1660	5773
1	1678	5774
1	1688	5775
1	1686	5776
1	1686	5777
1	1675	5778
1	1657	5779
1	1634	5780
1	1598	5781
1	1559	5782
1	1529	5783
1	1501	5784
1	1477	5785
1	1454	5786
1	1433	5787
1	1423	5788
1	1424	5789
1	1437	5790
1	1456	5791
1	1490	5792
1	1530	5793
1	1562	5794
1	1593	5795
1	1608	5796
1	1622	5797
1	1631	5798
1	1626	5799
1	1614	5800
1	1593	5801
1	1558	5802
1	1526	5803
1	1503	5804
1	1491	5805
1	1482	5806
1	1485	5807
1	1487	5808
1	1493	5809
1	1502	5810
1	1508	5811
1	1521	5812
1	1532	5813
1	1542	5814
1	1555	5815
1	1574	5816
1	1585	5817
1	1602	5818
1	1607	5819
1	1602	5820
1	1580	5821
1	1548	5822
1	1517	5823
1	1481	5824
1	1456	5825
1	1436	5826
1	1413	5827
1	1397	5828
1	1398	5829
1	1399	5830
1	1422	5831
1	1448	5832
1	1477	5833
1	1506	5834
1	1539	5835
1	1562	5836
1	1579	5837
1	1582	5838
1	1576	5839
1	1555	5840
1	1526	5841
1	1490	5842
1	1450	5843
1	1418	5844
1	1373	5845
1	1347	5846
1	1340	5847
1	1344	5848
1	1359	5849
1	1384	5850
1	1407	5851
1	1435	5852
1	1456	5853
1	1476	5854
1	1498	5855
1	1526	5856
1	1542	5857
1	1557	5858
1	1567	5859
1	1567	5860
1	1559	5861
1	1546	5862
1	1527	5863
1	1498	5864
1	1464	5865
1	1434	5866
1	1412	5867
1	1398	5868
1	1406	5869
1	1425	5870
1	1445	5871
1	1461	5872
1	1475	5873
1	1480	5874
1	1485	5875
1	1485	5876
1	1490	5877
1	1497	5878
1	1491	5879
1	1487	5880
1	1469	5881
1	1450	5882
1	1431	5883
1	1410	5884
1	1398	5885
1	1394	5886
1	1391	5887
1	1395	5888
1	1400	5889
1	1422	5890
1	1445	5891
1	1467	5892
1	1478	5893
1	1490	5894
1	1500	5895
1	1500	5896
1	1498	5897
1	1485	5898
1	1476	5899
1	1467	5900
1	1450	5901
1	1430	5902
1	1413	5903
1	1406	5904
1	1409	5905
1	1427	5906
1	1450	5907
1	1479	5908
1	1511	5909
1	1542	5910
1	1566	5911
1	1587	5912
1	1607	5913
1	1629	5914
1	1656	5915
1	1674	5916
1	1688	5917
1	1693	5918
1	1685	5919
1	1661	5920
1	1632	5921
1	1596	5922
1	1555	5923
1	1517	5924
1	1487	5925
1	1461	5926
1	1449	5927
1	1439	5928
1	1445	5929
1	1450	5930
1	1469	5931
1	1490	5932
1	1508	5933
1	1533	5934
1	1550	5935
1	1569	5936
1	1581	5937
1	1583	5938
1	1571	5939
1	1546	5940
1	1511	5941
1	1490	5942
1	1471	5943
1	1450	5944
1	1437	5945
1	1440	5946
1	1443	5947
1	1453	5948
1	1475	5949
1	1503	5950
1	1537	5951
1	1565	5952
1	1587	5953
1	1600	5954
1	1610	5955
1	1604	5956
1	1587	5957
1	1567	5958
1	1545	5959
1	1530	5960
1	1508	5961
1	1494	5962
1	1489	5963
1	1490	5964
1	1494	5965
1	1502	5966
1	1510	5967
1	1525	5968
1	1541	5969
1	1556	5970
1	1567	5971
1	1582	5972
1	1598	5973
1	1616	5974
1	1635	5975
1	1644	5976
1	1645	5977
1	1636	5978
1	1620	5979
1	1590	5980
1	1551	5981
1	1509	5982
1	1476	5983
1	1450	5984
1	1436	5985
1	1424	5986
1	1425	5987
1	1434	5988
1	1450	5989
1	1479	5990
1	1513	5991
1	1545	5992
1	1577	5993
1	1607	5994
1	1645	5995
1	1675	5996
1	1686	5997
1	1675	5998
1	1651	5999
1	1622	6000
1	1581	6001
1	1541	6002
1	1505	6003
1	1480	6004
1	1460	6005
1	1445	6006
1	1433	6007
1	1429	6008
1	1437	6009
1	1449	6010
1	1463	6011
1	1481	6012
1	1503	6013
1	1525	6014
1	1544	6015
1	1555	6016
1	1574	6017
1	1585	6018
1	1592	6019
1	1592	6020
1	1572	6021
1	1548	6022
1	1517	6023
1	1500	6024
1	1477	6025
1	1459	6026
1	1450	6027
1	1445	6028
1	1449	6029
1	1453	6030
1	1468	6031
1	1485	6032
1	1503	6033
1	1526	6034
1	1548	6035
1	1573	6036
1	1593	6037
1	1607	6038
1	1625	6039
1	1626	6040
1	1613	6041
1	1590	6042
1	1566	6043
1	1542	6044
1	1524	6045
1	1502	6046
1	1498	6047
1	1505	6048
1	1526	6049
1	1555	6050
1	1589	6051
1	1609	6052
1	1631	6053
1	1645	6054
1	1659	6055
1	1661	6056
1	1668	6057
1	1672	6058
1	1671	6059
1	1555	6080
1	1542	6081
1	1529	6082
1	1513	6083
1	1499	6084
1	1479	6085
1	1471	6086
1	1464	6087
1	1467	6088
1	1486	6089
1	1510	6090
1	1532	6091
1	1553	6092
1	1575	6093
1	1594	6094
1	1616	6095
1	1634	6096
1	1639	6097
1	1643	6098
1	1634	6099
1	1660	6060
1	1632	6061
1	1602	6062
1	1574	6063
1	1544	6064
1	1526	6065
1	1503	6066
1	1490	6067
1	1482	6068
1	1485	6069
1	1491	6070
1	1502	6071
1	1511	6072
1	1521	6073
1	1532	6074
1	1546	6075
1	1555	6076
1	1564	6077
1	1566	6078
1	1558	6079
1	1620	6100
1	1600	6101
1	1581	6102
1	1566	6103
1	1555	6104
1	1543	6105
1	1528	6106
1	1517	6107
1	1517	6108
1	1529	6109
1	1549	6110
1	1572	6111
1	1599	6112
1	1626	6113
1	1647	6114
1	1661	6115
1	1665	6116
1	1660	6117
1	1641	6118
1	1611	6119
1	1578	6120
1	1531	6121
1	1494	6122
1	1463	6123
1	1440	6124
1	1422	6125
1	1415	6126
1	1411	6127
1	1424	6128
1	1450	6129
1	1485	6130
1	1531	6131
1	1576	6132
1	1612	6133
1	1641	6134
1	1661	6135
1	1676	6136
1	1685	6137
1	1682	6138
1	1678	6139
1	1660	6160
1	1645	6161
1	1620	6162
1	1595	6163
1	1575	6164
1	1559	6165
1	1543	6166
1	1541	6167
1	1542	6168
1	1554	6169
1	1580	6170
1	1607	6171
1	1632	6172
1	1651	6173
1	1671	6174
1	1688	6175
1	1693	6176
1	1692	6177
1	1692	6178
1	1685	6179
1	1668	6140
1	1656	6141
1	1635	6142
1	1613	6143
1	1606	6144
1	1592	6145
1	1587	6146
1	1582	6147
1	1580	6148
1	1573	6149
1	1572	6150
1	1572	6151
1	1581	6152
1	1598	6153
1	1613	6154
1	1631	6155
1	1644	6156
1	1652	6157
1	1661	6158
1	1663	6159
1	1671	6180
1	1650	6181
1	1636	6182
1	1625	6183
1	1612	6184
1	1605	6185
1	1590	6186
1	1580	6187
1	1567	6188
1	1559	6189
1	1553	6190
1	1546	6191
1	1542	6192
1	1535	6193
1	1530	6194
1	1539	6195
1	1545	6196
1	1557	6197
1	1571	6198
1	1581	6199
1	1590	6200
1	1585	6201
1	1573	6202
1	1556	6203
1	1543	6204
1	1535	6205
1	1528	6206
1	1526	6207
1	1539	6208
1	1556	6209
1	1574	6210
1	1584	6211
1	1603	6212
1	1624	6213
1	1641	6214
1	1665	6215
1	1680	6216
1	1688	6217
1	1690	6218
1	1683	6219
1	1670	6220
1	1649	6221
1	1625	6222
1	1595	6223
1	1575	6224
1	1557	6225
1	1548	6226
1	1538	6227
1	1530	6228
1	1531	6229
1	1540	6230
1	1561	6231
1	1589	6232
1	1613	6233
1	1647	6234
1	1672	6235
1	1686	6236
1	1690	6237
1	1686	6238
1	1672	6239
1	1656	6240
1	1624	6241
1	1593	6242
1	1559	6243
1	1534	6244
1	1512	6245
1	1503	6246
1	1490	6247
1	1488	6248
1	1492	6249
1	1507	6250
1	1530	6251
1	1559	6252
1	1589	6253
1	1617	6254
1	1647	6255
1	1664	6256
1	1686	6257
1	1706	6258
1	1717	6259
1	1728	6260
1	1724	6261
1	1712	6262
1	1710	6263
1	1710	6264
1	1713	6265
1	1733	6266
1	1759	6267
1	1796	6268
1	1854	6269
1	1910	6270
1	1968	6271
1	2032	6272
1	2099	6273
1	2156	6274
1	2207	6275
1	2236	6276
1	2248	6277
1	2243	6278
1	2232	6279
1	2206	6280
1	2168	6281
1	2119	6282
1	2066	6283
1	2004	6284
1	1935	6285
1	1857	6286
1	1783	6287
1	1720	6288
1	1668	6289
1	1623	6290
1	1586	6291
1	1557	6292
1	1543	6293
1	1529	6294
1	1517	6295
1	1503	6296
1	1492	6297
1	1481	6298
1	1463	6299
1	1448	6300
1	1424	6301
1	1407	6302
1	1403	6303
1	1401	6304
1	1402	6305
1	1412	6306
1	1435	6307
1	1459	6308
1	1485	6309
1	1517	6310
1	1555	6311
1	1594	6312
1	1634	6313
1	1665	6314
1	1691	6315
1	1702	6316
1	1711	6317
1	1717	6318
1	1725	6319
1	1726	6320
1	1712	6321
1	1697	6322
1	1682	6323
1	1668	6324
1	1645	6325
1	1623	6326
1	1602	6327
1	1584	6328
1	1575	6329
1	1573	6330
1	1580	6331
1	1589	6332
1	1603	6333
1	1612	6334
1	1613	6335
1	1615	6336
1	1620	6337
1	1626	6338
1	1629	6339
1	1621	6340
1	1613	6341
1	1607	6342
1	1603	6343
1	1598	6344
1	1589	6345
1	1579	6346
1	1581	6347
1	1585	6348
1	1595	6349
1	1607	6350
1	1620	6351
1	1616	6352
1	1611	6353
1	1605	6354
1	1598	6355
1	1594	6356
1	1593	6357
1	1590	6358
1	1585	6359
1	1747	6380
1	1729	6381
1	1705	6382
1	1674	6383
1	1641	6384
1	1610	6385
1	1583	6386
1	1556	6387
1	1530	6388
1	1515	6389
1	1511	6390
1	1510	6391
1	1523	6392
1	1542	6393
1	1566	6394
1	1601	6395
1	1625	6396
1	1643	6397
1	1649	6398
1	1647	6399
1	1589	6360
1	1587	6361
1	1593	6362
1	1587	6363
1	1579	6364
1	1570	6365
1	1557	6366
1	1553	6367
1	1560	6368
1	1577	6369
1	1590	6370
1	1605	6371
1	1624	6372
1	1652	6373
1	1680	6374
1	1708	6375
1	1724	6376
1	1740	6377
1	1751	6378
1	1753	6379
1	1643	6400
1	1638	6401
1	1633	6402
1	1626	6403
1	1620	6404
1	1607	6405
1	1586	6406
1	1572	6407
1	1555	6408
1	1543	6409
1	1553	6410
1	1566	6411
1	1584	6412
1	1607	6413
1	1630	6414
1	1643	6415
1	1651	6416
1	1651	6417
1	1655	6418
1	1659	6419
1	1660	6420
1	1652	6421
1	1647	6422
1	1634	6423
1	1607	6424
1	1580	6425
1	1556	6426
1	1532	6427
1	1517	6428
1	1503	6429
1	1494	6430
1	1490	6431
1	1492	6432
1	1498	6433
1	1508	6434
1	1531	6435
1	1553	6436
1	1578	6437
1	1592	6438
1	1592	6439
1	1584	6440
1	1562	6441
1	1544	6442
1	1537	6443
1	1530	6444
1	1529	6445
1	1530	6446
1	1535	6447
1	1546	6448
1	1564	6449
1	1584	6450
1	1603	6451
1	1622	6452
1	1638	6453
1	1652	6454
1	1661	6455
1	1672	6456
1	1676	6457
1	1685	6458
1	1698	6459
1	1712	6460
1	1719	6461
1	1726	6462
1	1720	6463
1	1712	6464
1	1703	6465
1	1686	6466
1	1677	6467
1	1674	6468
1	1682	6469
1	1688	6470
1	1700	6471
1	1712	6472
1	1731	6473
1	1752	6474
1	1777	6475
1	1811	6476
1	1841	6477
1	1856	6478
1	1850	6479
1	1835	6480
1	1803	6481
1	1782	6482
1	1762	6483
1	1747	6484
1	1737	6485
1	1713	6486
1	1697	6487
1	1686	6488
1	1692	6489
1	1708	6490
1	1731	6491
1	1760	6492
1	1791	6493
1	1830	6494
1	1860	6495
1	1874	6496
1	1883	6497
1	1883	6498
1	1872	6499
1	1868	6500
1	1851	6501
1	1836	6502
1	1827	6503
1	1817	6504
1	1811	6505
1	1814	6506
1	1825	6507
1	1837	6508
1	1852	6509
1	1864	6510
1	1869	6511
1	1878	6512
1	1886	6513
1	1893	6514
1	1892	6515
1	1883	6516
1	1869	6517
1	1858	6518
1	1843	6519
1	1960	6540
1	1937	6541
1	1908	6542
1	1869	6543
1	1837	6544
1	1793	6545
1	1763	6546
1	1725	6547
1	1700	6548
1	1688	6549
1	1692	6550
1	1710	6551
1	1738	6552
1	1765	6553
1	1794	6554
1	1834	6555
1	1856	6556
1	1882	6557
1	1896	6558
1	1898	6559
1	1819	6520
1	1788	6521
1	1760	6522
1	1739	6523
1	1736	6524
1	1737	6525
1	1737	6526
1	1738	6527
1	1744	6528
1	1759	6529
1	1776	6530
1	1799	6531
1	1831	6532
1	1859	6533
1	1895	6534
1	1922	6535
1	1944	6536
1	1959	6537
1	1967	6538
1	1964	6539
1	1890	6560
1	1865	6561
1	1828	6562
1	1782	6563
1	1734	6564
1	1685	6565
1	1639	6566
1	1603	6567
1	1584	6568
1	1584	6569
1	1594	6570
1	1608	6571
1	1643	6572
1	1675	6573
1	1706	6574
1	1738	6575
1	1764	6576
1	1782	6577
1	1783	6578
1	1769	6579
1	1764	6580
1	1742	6581
1	1717	6582
1	1699	6583
1	1686	6584
1	1674	6585
1	1656	6586
1	1655	6587
1	1661	6588
1	1679	6589
1	1704	6590
1	1726	6591
1	1750	6592
1	1773	6593
1	1791	6594
1	1813	6595
1	1817	6596
1	1811	6597
1	1791	6598
1	1764	6599
1	1733	6600
1	1689	6601
1	1654	6602
1	1618	6603
1	1593	6604
1	1566	6605
1	1557	6606
1	1555	6607
1	1557	6608
1	1574	6609
1	1589	6610
1	1608	6611
1	1638	6612
1	1669	6613
1	1697	6614
1	1727	6615
1	1748	6616
1	1764	6617
1	1764	6618
1	1764	6619
1	1767	6620
1	1760	6621
1	1747	6622
1	1726	6623
1	1714	6624
1	1686	6625
1	1662	6626
1	1644	6627
1	1634	6628
1	1630	6629
1	1623	6630
1	1621	6631
1	1625	6632
1	1637	6633
1	1656	6634
1	1666	6635
1	1684	6636
1	1705	6637
1	1728	6638
1	1751	6639
1	1823	6660
1	1790	6661
1	1755	6662
1	1715	6663
1	1678	6664
1	1644	6665
1	1611	6666
1	1600	6667
1	1600	6668
1	1620	6669
1	1647	6670
1	1675	6671
1	1711	6672
1	1747	6673
1	1785	6674
1	1827	6675
1	1849	6676
1	1869	6677
1	1882	6678
1	1884	6679
1	1760	6640
1	1761	6641
1	1754	6642
1	1744	6643
1	1734	6644
1	1721	6645
1	1702	6646
1	1696	6647
1	1699	6648
1	1711	6649
1	1728	6650
1	1760	6651
1	1791	6652
1	1823	6653
1	1845	6654
1	1865	6655
1	1877	6656
1	1880	6657
1	1869	6658
1	1848	6659
1	1877	6680
1	1856	6681
1	1823	6682
1	1789	6683
1	1762	6684
1	1737	6685
1	1720	6686
1	1715	6687
1	1716	6688
1	1722	6689
1	1738	6690
1	1762	6691
1	1787	6692
1	1812	6693
1	1827	6694
1	1838	6695
1	1831	6696
1	1814	6697
1	1791	6698
1	1770	6699
1	1751	6700
1	1728	6701
1	1704	6702
1	1686	6703
1	1672	6704
1	1660	6705
1	1647	6706
1	1641	6707
1	1636	6708
1	1634	6709
1	1638	6710
1	1660	6711
1	1683	6712
1	1712	6713
1	1744	6714
1	1778	6715
1	1813	6716
1	1834	6717
1	1847	6718
1	1850	6719
1	1849	6720
1	1836	6721
1	1817	6722
1	1788	6723
1	1754	6724
1	1719	6725
1	1699	6726
1	1675	6727
1	1674	6728
1	1672	6729
1	1684	6730
1	1695	6731
1	1708	6732
1	1721	6733
1	1730	6734
1	1740	6735
1	1744	6736
1	1759	6737
1	1766	6738
1	1769	6739
1	1764	6740
1	1755	6741
1	1751	6742
1	1749	6743
1	1744	6744
1	1737	6745
1	1724	6746
1	1712	6747
1	1703	6748
1	1699	6749
1	1702	6750
1	1705	6751
1	1718	6752
1	1742	6753
1	1776	6754
1	1811	6755
1	1842	6756
1	1861	6757
1	1868	6758
1	1865	6759
1	1845	6760
1	1819	6761
1	1785	6762
1	1749	6763
1	1713	6764
1	1686	6765
1	1654	6766
1	1646	6767
1	1648	6768
1	1665	6769
1	1699	6770
1	1731	6771
1	1760	6772
1	1791	6773
1	1829	6774
1	1856	6775
1	1869	6776
1	1869	6777
1	1848	6778
1	1812	6779
1	1759	6780
1	1711	6781
1	1668	6782
1	1634	6783
1	1605	6784
1	1581	6785
1	1574	6786
1	1586	6787
1	1618	6788
1	1660	6789
1	1698	6790
1	1738	6791
1	1783	6792
1	1832	6793
1	1871	6794
1	1909	6795
1	1934	6796
1	1953	6797
1	1956	6798
1	1946	6799
1	1922	6800
1	1897	6801
1	1858	6802
1	1817	6803
1	1765	6804
1	1729	6805
1	1699	6806
1	1682	6807
1	1670	6808
1	1670	6809
1	1677	6810
1	1688	6811
1	1716	6812
1	1755	6813
1	1792	6814
1	1832	6815
1	1854	6816
1	1869	6817
1	1869	6818
1	1858	6819
1	1841	6820
1	1817	6821
1	1788	6822
1	1752	6823
1	1723	6824
1	1686	6825
1	1652	6826
1	1623	6827
1	1599	6828
1	1590	6829
1	1586	6830
1	1602	6831
1	1631	6832
1	1665	6833
1	1710	6834
1	1749	6835
1	1777	6836
1	1800	6837
1	1820	6838
1	1841	6839
1	1850	6840
1	1848	6841
1	1841	6842
1	1821	6843
1	1800	6844
1	1769	6845
1	1751	6846
1	1725	6847
1	1701	6848
1	1685	6849
1	1672	6850
1	1662	6851
1	1665	6852
1	1683	6853
1	1698	6854
1	1711	6855
1	1712	6856
1	1715	6857
1	1718	6858
1	1715	6859
1	1710	6860
1	1689	6861
1	1668	6862
1	1652	6863
1	1639	6864
1	1632	6865
1	1631	6866
1	1634	6867
1	1647	6868
1	1671	6869
1	1705	6870
1	1736	6871
1	1767	6872
1	1800	6873
1	1822	6874
1	1832	6875
1	1823	6876
1	1803	6877
1	1787	6878
1	1759	6879
1	1723	6880
1	1696	6881
1	1669	6882
1	1644	6883
1	1625	6884
1	1607	6885
1	1589	6886
1	1580	6887
1	1580	6888
1	1598	6889
1	1635	6890
1	1680	6891
1	1725	6892
1	1775	6893
1	1819	6894
1	1852	6895
1	1865	6896
1	1862	6897
1	1848	6898
1	1826	6899
1	1800	6900
1	1764	6901
1	1730	6902
1	1700	6903
1	1681	6904
1	1657	6905
1	1647	6906
1	1633	6907
1	1620	6908
1	1623	6909
1	1633	6910
1	1646	6911
1	1668	6912
1	1700	6913
1	1738	6914
1	1782	6915
1	1817	6916
1	1855	6917
1	1890	6918
1	1921	6919
1	1947	6920
1	1957	6921
1	1950	6922
1	1926	6923
1	1877	6924
1	1850	6925
1	1815	6926
1	1779	6927
1	1760	6928
1	1751	6929
1	1746	6930
1	1753	6931
1	1768	6932
1	1789	6933
1	1811	6934
1	1823	6935
1	1832	6936
1	1831	6937
1	1818	6938
1	1812	6939
1	1795	6940
1	1778	6941
1	1754	6942
1	1724	6943
1	1703	6944
1	1686	6945
1	1664	6946
1	1659	6947
1	1661	6948
1	1672	6949
1	1683	6950
1	1706	6951
1	1726	6952
1	1749	6953
1	1764	6954
1	1778	6955
1	1785	6956
1	1779	6957
1	1769	6958
1	1755	6959
1	1743	6960
1	1728	6961
1	1726	6962
1	1728	6963
1	1736	6964
1	1737	6965
1	1730	6966
1	1718	6967
1	1713	6968
1	1711	6969
1	1712	6970
1	1724	6971
1	1739	6972
1	1763	6973
1	1775	6974
1	1787	6975
1	1779	6976
1	1773	6977
1	1764	6978
1	1751	6979
1	1738	6980
1	1713	6981
1	1687	6982
1	1673	6983
1	1657	6984
1	1644	6985
1	1635	6986
1	1634	6987
1	1638	6988
1	1647	6989
1	1652	6990
1	1654	6991
1	1670	6992
1	1688	6993
1	1711	6994
1	1730	6995
1	1744	6996
1	1754	6997
1	1760	6998
1	1764	6999
1	1759	7000
1	1743	7001
1	1721	7002
1	1697	7003
1	1674	7004
1	1654	7005
1	1632	7006
1	1620	7007
1	1619	7008
1	1623	7009
1	1631	7010
1	1656	7011
1	1679	7012
1	1706	7013
1	1728	7014
1	1751	7015
1	1769	7016
1	1785	7017
1	1796	7018
1	1796	7019
1	1787	7020
1	1754	7021
1	1714	7022
1	1673	7023
1	1639	7024
1	1616	7025
1	1615	7026
1	1607	7027
1	1620	7028
1	1634	7029
1	1664	7030
1	1704	7031
1	1747	7032
1	1796	7033
1	1853	7034
1	1903	7035
1	1942	7036
1	1975	7037
1	2006	7038
1	2027	7039
1	2026	7040
1	2014	7041
1	2005	7042
1	2012	7043
1	2013	7044
1	2011	7045
1	2007	7046
1	2014	7047
1	2029	7048
1	2051	7049
1	2079	7050
1	2110	7051
1	2148	7052
1	2183	7053
1	2213	7054
1	2233	7055
1	2247	7056
1	2237	7057
1	2210	7058
1	2166	7059
1	2107	7060
1	2039	7061
1	1962	7062
1	1880	7063
1	1796	7064
1	1718	7065
1	1637	7066
1	1575	7067
1	1530	7068
1	1513	7069
1	1514	7070
1	1529	7071
1	1554	7072
1	1580	7073
1	1605	7074
1	1629	7075
1	1647	7076
1	1659	7077
1	1670	7078
1	1683	7079
1	1686	7080
1	1672	7081
1	1653	7082
1	1626	7083
1	1603	7084
1	1576	7085
1	1554	7086
1	1544	7087
1	1544	7088
1	1549	7089
1	1555	7090
1	1569	7091
1	1589	7092
1	1615	7093
1	1645	7094
1	1678	7095
1	1708	7096
1	1738	7097
1	1766	7098
1	1787	7099
1	1787	7100
1	1781	7101
1	1763	7102
1	1734	7103
1	1707	7104
1	1682	7105
1	1662	7106
1	1652	7107
1	1649	7108
1	1659	7109
1	1681	7110
1	1705	7111
1	1736	7112
1	1757	7113
1	1778	7114
1	1791	7115
1	1787	7116
1	1773	7117
1	1751	7118
1	1724	7119
1	1694	7120
1	1660	7121
1	1635	7122
1	1611	7123
1	1603	7124
1	1594	7125
1	1587	7126
1	1582	7127
1	1580	7128
1	1585	7129
1	1594	7130
1	1612	7131
1	1636	7132
1	1660	7133
1	1692	7134
1	1717	7135
1	1742	7136
1	1760	7137
1	1767	7138
1	1765	7139
1	1760	7140
1	1738	7141
1	1712	7142
1	1683	7143
1	1661	7144
1	1636	7145
1	1626	7146
1	1618	7147
1	1616	7148
1	1623	7149
1	1632	7150
1	1639	7151
1	1653	7152
1	1661	7153
1	1661	7154
1	1658	7155
1	1639	7156
1	1621	7157
1	1598	7158
1	1581	7159
1	1764	7180
1	1753	7181
1	1742	7182
1	1738	7183
1	1741	7184
1	1741	7185
1	1742	7186
1	1751	7187
1	1765	7188
1	1791	7189
1	1824	7190
1	1852	7191
1	1881	7192
1	1895	7193
1	1895	7194
1	1872	7195
1	1844	7196
1	1817	7197
1	1790	7198
1	1763	7199
1	1568	7160
1	1562	7161
1	1564	7162
1	1572	7163
1	1592	7164
1	1618	7165
1	1648	7166
1	1686	7167
1	1717	7168
1	1749	7169
1	1770	7170
1	1776	7171
1	1778	7172
1	1787	7173
1	1795	7174
1	1808	7175
1	1809	7176
1	1798	7177
1	1787	7178
1	1773	7179
1	1737	7200
1	1692	7201
1	1652	7202
1	1611	7203
1	1583	7204
1	1559	7205
1	1557	7206
1	1556	7207
1	1566	7208
1	1583	7209
1	1611	7210
1	1644	7211
1	1672	7212
1	1697	7213
1	1719	7214
1	1741	7215
1	1754	7216
1	1767	7217
1	1778	7218
1	1781	7219
1	1772	7220
1	1749	7221
1	1724	7222
1	1698	7223
1	1675	7224
1	1648	7225
1	1634	7226
1	1629	7227
1	1626	7228
1	1633	7229
1	1644	7230
1	1659	7231
1	1675	7232
1	1700	7233
1	1729	7234
1	1759	7235
1	1779	7236
1	1790	7237
1	1791	7238
1	1793	7239
1	1788	7240
1	1776	7241
1	1764	7242
1	1750	7243
1	1737	7244
1	1724	7245
1	1712	7246
1	1712	7247
1	1710	7248
1	1707	7249
1	1700	7250
1	1710	7251
1	1721	7252
1	1742	7253
1	1765	7254
1	1795	7255
1	1827	7256
1	1849	7257
1	1867	7258
1	1873	7259
1	1975	7280
1	1949	7281
1	1919	7282
1	1880	7283
1	1843	7284
1	1800	7285
1	1764	7286
1	1737	7287
1	1719	7288
1	1724	7289
1	1742	7290
1	1765	7291
1	1801	7292
1	1841	7293
1	1869	7294
1	1909	7295
1	1926	7296
1	1935	7297
1	1931	7298
1	1920	7299
1	1877	7260
1	1868	7261
1	1862	7262
1	1856	7263
1	1845	7264
1	1844	7265
1	1843	7266
1	1849	7267
1	1857	7268
1	1869	7269
1	1880	7270
1	1895	7271
1	1913	7272
1	1942	7273
1	1964	7274
1	1988	7275
1	1999	7276
1	2005	7277
1	2001	7278
1	1988	7279
1	1898	7300
1	1878	7301
1	1855	7302
1	1830	7303
1	1809	7304
1	1782	7305
1	1764	7306
1	1764	7307
1	1772	7308
1	1783	7309
1	1803	7310
1	1828	7311
1	1851	7312
1	1869	7313
1	1881	7314
1	1893	7315
1	1895	7316
1	1886	7317
1	1874	7318
1	1854	7319
1	1825	7320
1	1780	7321
1	1750	7322
1	1724	7323
1	1697	7324
1	1661	7325
1	1643	7326
1	1634	7327
1	1634	7328
1	1643	7329
1	1660	7330
1	1692	7331
1	1729	7332
1	1761	7333
1	1782	7334
1	1798	7335
1	1801	7336
1	1791	7337
1	1769	7338
1	1742	7339
1	1711	7340
1	1672	7341
1	1638	7342
1	1608	7343
1	1581	7344
1	1559	7345
1	1548	7346
1	1548	7347
1	1557	7348
1	1579	7349
1	1600	7350
1	1620	7351
1	1649	7352
1	1683	7353
1	1712	7354
1	1744	7355
1	1781	7356
1	1803	7357
1	1818	7358
1	1818	7359
1	1803	7360
1	1782	7361
1	1755	7362
1	1720	7363
1	1684	7364
1	1647	7365
1	1611	7366
1	1590	7367
1	1571	7368
1	1555	7369
1	1559	7370
1	1567	7371
1	1580	7372
1	1595	7373
1	1613	7374
1	1632	7375
1	1643	7376
1	1652	7377
1	1654	7378
1	1651	7379
1	1637	7380
1	1625	7381
1	1607	7382
1	1594	7383
1	1582	7384
1	1576	7385
1	1566	7386
1	1557	7387
1	1557	7388
1	1568	7389
1	1581	7390
1	1597	7391
1	1620	7392
1	1648	7393
1	1681	7394
1	1711	7395
1	1719	7396
1	1720	7397
1	1711	7398
1	1687	7399
1	1658	7400
1	1622	7401
1	1577	7402
1	1529	7403
1	1489	7404
1	1464	7405
1	1453	7406
1	1468	7407
1	1490	7408
1	1516	7409
1	1543	7410
1	1568	7411
1	1597	7412
1	1633	7413
1	1661	7414
1	1693	7415
1	1712	7416
1	1723	7417
1	1731	7418
1	1731	7419
1	1715	7420
1	1691	7421
1	1661	7422
1	1630	7423
1	1596	7424
1	1555	7425
1	1516	7426
1	1491	7427
1	1478	7428
1	1490	7429
1	1511	7430
1	1544	7431
1	1591	7432
1	1628	7433
1	1660	7434
1	1677	7435
1	1683	7436
1	1681	7437
1	1672	7438
1	1660	7439
1	1643	7440
1	1616	7441
1	1593	7442
1	1570	7443
1	1544	7444
1	1524	7445
1	1512	7446
1	1500	7447
1	1499	7448
1	1505	7449
1	1517	7450
1	1531	7451
1	1546	7452
1	1565	7453
1	1584	7454
1	1605	7455
1	1620	7456
1	1635	7457
1	1647	7458
1	1651	7459
1	1654	7460
1	1652	7461
1	1647	7462
1	1646	7463
1	1644	7464
1	1643	7465
1	1643	7466
1	1636	7467
1	1633	7468
1	1626	7469
1	1624	7470
1	1627	7471
1	1642	7472
1	1659	7473
1	1672	7474
1	1699	7475
1	1718	7476
1	1729	7477
1	1731	7478
1	1727	7479
1	1712	7480
1	1697	7481
1	1671	7482
1	1643	7483
1	1613	7484
1	1589	7485
1	1569	7486
1	1555	7487
1	1555	7488
1	1566	7489
1	1596	7490
1	1636	7491
1	1684	7492
1	1726	7493
1	1763	7494
1	1791	7495
1	1803	7496
1	1809	7497
1	1801	7498
1	1790	7499
1	1772	7500
1	1739	7501
1	1701	7502
1	1657	7503
1	1612	7504
1	1574	7505
1	1542	7506
1	1520	7507
1	1507	7508
1	1508	7509
1	1519	7510
1	1536	7511
1	1559	7512
1	1586	7513
1	1611	7514
1	1638	7515
1	1651	7516
1	1662	7517
1	1674	7518
1	1674	7519
1	1680	7520
1	1672	7521
1	1664	7522
1	1656	7523
1	1647	7524
1	1629	7525
1	1609	7526
1	1598	7527
1	1593	7528
1	1594	7529
1	1607	7530
1	1629	7531
1	1651	7532
1	1665	7533
1	1678	7534
1	1688	7535
1	1693	7536
1	1695	7537
1	1685	7538
1	1670	7539
1	1652	7540
1	1633	7541
1	1607	7542
1	1577	7543
1	1556	7544
1	1545	7545
1	1536	7546
1	1540	7547
1	1544	7548
1	1555	7549
1	1572	7550
1	1596	7551
1	1623	7552
1	1660	7553
1	1687	7554
1	1710	7555
1	1716	7556
1	1720	7557
1	1722	7558
1	1719	7559
1	1712	7560
1	1695	7561
1	1674	7562
1	1652	7563
1	1633	7564
1	1619	7565
1	1610	7566
1	1605	7567
1	1596	7568
1	1594	7569
1	1598	7570
1	1611	7571
1	1635	7572
1	1670	7573
1	1706	7574
1	1740	7575
1	1764	7576
1	1787	7577
1	1795	7578
1	1791	7579
1	1713	7600
1	1697	7601
1	1670	7602
1	1634	7603
1	1607	7604
1	1582	7605
1	1563	7606
1	1557	7607
1	1567	7608
1	1584	7609
1	1598	7610
1	1619	7611
1	1636	7612
1	1654	7613
1	1664	7614
1	1669	7615
1	1669	7616
1	1665	7617
1	1662	7618
1	1656	7619
1	1778	7580
1	1751	7581
1	1710	7582
1	1667	7583
1	1629	7584
1	1589	7585
1	1554	7586
1	1528	7587
1	1504	7588
1	1500	7589
1	1498	7590
1	1503	7591
1	1520	7592
1	1548	7593
1	1581	7594
1	1630	7595
1	1665	7596
1	1699	7597
1	1715	7598
1	1721	7599
1	1775	7640
1	1760	7641
1	1746	7642
1	1730	7643
1	1707	7644
1	1675	7645
1	1647	7646
1	1628	7647
1	1611	7648
1	1613	7649
1	1619	7650
1	1627	7651
1	1645	7652
1	1665	7653
1	1686	7654
1	1702	7655
1	1714	7656
1	1715	7657
1	1713	7658
1	1710	7659
1	1645	7620
1	1625	7621
1	1606	7622
1	1593	7623
1	1594	7624
1	1597	7625
1	1608	7626
1	1608	7627
1	1620	7628
1	1626	7629
1	1634	7630
1	1647	7631
1	1667	7632
1	1687	7633
1	1711	7634
1	1733	7635
1	1749	7636
1	1764	7637
1	1778	7638
1	1780	7639
1	1699	7660
1	1684	7661
1	1660	7662
1	1634	7663
1	1613	7664
1	1597	7665
1	1577	7666
1	1560	7667
1	1554	7668
1	1555	7669
1	1571	7670
1	1597	7671
1	1634	7672
1	1679	7673
1	1721	7674
1	1763	7675
1	1793	7676
1	1826	7677
1	1842	7678
1	1835	7679
1	1808	7680
1	1778	7681
1	1742	7682
1	1699	7683
1	1659	7684
1	1633	7685
1	1605	7686
1	1583	7687
1	1574	7688
1	1571	7689
1	1577	7690
1	1587	7691
1	1604	7692
1	1631	7693
1	1663	7694
1	1704	7695
1	1733	7696
1	1753	7697
1	1764	7698
1	1763	7699
1	1752	7700
1	1744	7701
1	1726	7702
1	1703	7703
1	1678	7704
1	1650	7705
1	1629	7706
1	1615	7707
1	1611	7708
1	1622	7709
1	1635	7710
1	1646	7711
1	1660	7712
1	1681	7713
1	1703	7714
1	1738	7715
1	1768	7716
1	1792	7717
1	1816	7718
1	1819	7719
1	1809	7720
1	1772	7721
1	1737	7722
1	1687	7723
1	1652	7724
1	1621	7725
1	1602	7726
1	1586	7727
1	1584	7728
1	1589	7729
1	1606	7730
1	1629	7731
1	1674	7732
1	1713	7733
1	1751	7734
1	1774	7735
1	1779	7736
1	1767	7737
1	1739	7738
1	1700	7739
1	1660	7740
1	1617	7741
1	1580	7742
1	1553	7743
1	1528	7744
1	1503	7745
1	1494	7746
1	1497	7747
1	1507	7748
1	1529	7749
1	1554	7750
1	1581	7751
1	1607	7752
1	1638	7753
1	1667	7754
1	1692	7755
1	1700	7756
1	1708	7757
1	1712	7758
1	1704	7759
1	1698	7760
1	1678	7761
1	1655	7762
1	1625	7763
1	1595	7764
1	1567	7765
1	1549	7766
1	1542	7767
1	1550	7768
1	1565	7769
1	1584	7770
1	1605	7771
1	1634	7772
1	1662	7773
1	1693	7774
1	1733	7775
1	1755	7776
1	1764	7777
1	1764	7778
1	1750	7779
1	1645	7800
1	1615	7801
1	1593	7802
1	1573	7803
1	1562	7804
1	1557	7805
1	1570	7806
1	1585	7807
1	1607	7808
1	1635	7809
1	1674	7810
1	1723	7811
1	1780	7812
1	1843	7813
1	1895	7814
1	1940	7815
1	1973	7816
1	2004	7817
1	2031	7818
1	2061	7819
1	1721	7780
1	1691	7781
1	1657	7782
1	1625	7783
1	1593	7784
1	1561	7785
1	1544	7786
1	1539	7787
1	1541	7788
1	1551	7789
1	1581	7790
1	1607	7791
1	1636	7792
1	1664	7793
1	1687	7794
1	1704	7795
1	1712	7796
1	1708	7797
1	1690	7798
1	1669	7799
1	2095	7820
1	2113	7821
1	2117	7822
1	2111	7823
1	2106	7824
1	2092	7825
1	2081	7826
1	2076	7827
1	2066	7828
1	2066	7829
1	2066	7830
1	2071	7831
1	2075	7832
1	2068	7833
1	2054	7834
1	2037	7835
1	2003	7836
1	1963	7837
1	1914	7838
1	1859	7839
1	1799	7840
1	1741	7841
1	1681	7842
1	1613	7843
1	1555	7844
1	1506	7845
1	1464	7846
1	1436	7847
1	1410	7848
1	1395	7849
1	1383	7850
1	1398	7851
1	1423	7852
1	1455	7853
1	1502	7854
1	1548	7855
1	1583	7856
1	1612	7857
1	1634	7858
1	1647	7859
1	1653	7860
1	1654	7861
1	1657	7862
1	1655	7863
1	1649	7864
1	1638	7865
1	1615	7866
1	1598	7867
1	1584	7868
1	1581	7869
1	1585	7870
1	1594	7871
1	1602	7872
1	1607	7873
1	1619	7874
1	1634	7875
1	1645	7876
1	1659	7877
1	1673	7878
1	1692	7879
1	1710	7880
1	1712	7881
1	1703	7882
1	1678	7883
1	1646	7884
1	1618	7885
1	1600	7886
1	1593	7887
1	1593	7888
1	1602	7889
1	1620	7890
1	1630	7891
1	1645	7892
1	1658	7893
1	1668	7894
1	1686	7895
1	1693	7896
1	1703	7897
1	1710	7898
1	1711	7899
1	1710	7900
1	1701	7901
1	1697	7902
1	1687	7903
1	1675	7904
1	1657	7905
1	1633	7906
1	1609	7907
1	1597	7908
1	1592	7909
1	1592	7910
1	1602	7911
1	1606	7912
1	1620	7913
1	1643	7914
1	1672	7915
1	1703	7916
1	1728	7917
1	1740	7918
1	1737	7919
1	1718	7920
1	1686	7921
1	1647	7922
1	1607	7923
1	1576	7924
1	1544	7925
1	1530	7926
1	1517	7927
1	1529	7928
1	1554	7929
1	1585	7930
1	1624	7931
1	1665	7932
1	1707	7933
1	1739	7934
1	1769	7935
1	1791	7936
1	1819	7937
1	1843	7938
1	1851	7939
1	1843	7940
1	1816	7941
1	1765	7942
1	1726	7943
1	1682	7944
1	1637	7945
1	1595	7946
1	1561	7947
1	1541	7948
1	1529	7949
1	1526	7950
1	1530	7951
1	1555	7952
1	1592	7953
1	1629	7954
1	1665	7955
1	1703	7956
1	1730	7957
1	1749	7958
1	1755	7959
1	1757	7960
1	1751	7961
1	1738	7962
1	1716	7963
1	1698	7964
1	1678	7965
1	1656	7966
1	1633	7967
1	1615	7968
1	1610	7969
1	1620	7970
1	1644	7971
1	1671	7972
1	1703	7973
1	1739	7974
1	1776	7975
1	1812	7976
1	1831	7977
1	1836	7978
1	1829	7979
1	1803	7980
1	1772	7981
1	1738	7982
1	1692	7983
1	1646	7984
1	1607	7985
1	1579	7986
1	1559	7987
1	1555	7988
1	1571	7989
1	1597	7990
1	1638	7991
1	1686	7992
1	1733	7993
1	1769	7994
1	1815	7995
1	1841	7996
1	1864	7997
1	1874	7998
1	1875	7999
1	1865	8000
1	1849	8000
1	1816	8002
1	1773	8003
1	1738	8004
1	1708	8005
1	1683	8006
1	1662	8007
1	1652	8008
1	1649	8009
1	1656	8010
1	1668	8011
1	1697	8012
1	1736	8013
1	1768	8013
1	1809	8015
1	1839	8016
1	1861	8016
1	1884	8018
1	1895	8019
1	1896	8020
1	1888	8021
1	1875	8022
1	1847	8023
1	1822	8024
1	1791	8025
1	1773	8026
1	1755	8027
1	1734	8028
1	1716	8029
1	1712	8029
1	1714	8031
1	1723	8032
1	1736	8032
1	1749	8034
1	1767	8035
1	1785	8036
1	1808	8037
1	1821	8038
1	1826	8039
1	1826	8040
1	1817	8041
1	1803	8042
1	1791	8043
1	1786	8044
1	1773	8045
1	1773	8045
1	1770	8047
1	1777	8048
1	1788	8048
1	1803	8050
1	1832	8051
1	1859	8052
1	1888	8053
1	1914	8054
1	1935	8055
1	1945	8056
1	1952	8057
1	1953	8058
1	1948	8059
1	1947	8060
1	1932	8061
1	1923	8061
1	1908	8063
1	1895	8064
1	1878	8064
1	1861	8066
1	1844	8067
1	1831	8068
1	1817	8069
1	1815	8070
1	1814	8071
1	1827	8072
1	1845	8073
1	1867	8074
1	1895	8074
1	1908	8076
1	1917	8077
1	1923	8077
1	1932	8079
1	1933	8080
1	1922	8080
1	1904	8082
1	1880	8083
1	1860	8084
1	1846	8085
1	1834	8086
1	1827	8087
1	1824	8088
1	1823	8089
1	1828	8090
1	1828	8090
1	1840	8092
1	1850	8093
1	1856	8093
1	1860	8095
1	1856	8096
1	1845	8096
1	1830	8098
1	1811	8099
1	1782	8100
1	1746	8101
1	1716	8102
1	1688	8103
1	1665	8104
1	1656	8105
1	1642	8106
1	1629	8106
1	1621	8108
1	1625	8109
1	1634	8109
1	1647	8111
1	1669	8112
1	1693	8113
1	1711	8114
1	1723	8115
1	1730	8116
1	1740	8117
1	1734	8118
1	1710	8119
1	1684	8120
1	1641	8121
1	1594	8122
1	1546	8122
1	1506	8124
1	1482	8125
1	1465	8125
1	1450	8127
1	1438	8128
1	1437	8129
1	1441	8130
1	1450	8131
1	1472	8132
1	1500	8133
1	1531	8134
1	1565	8135
1	1594	8136
1	1616	8137
1	1633	8138
1	1643	8138
1	1634	8140
1	1616	8141
1	1597	8141
1	1571	8143
1	1553	8144
1	1539	8145
1	1522	8146
1	1518	8147
1	1520	8148
1	1529	8149
1	1544	8150
1	1575	8151
1	1607	8152
1	1636	8153
1	1662	8154
1	1682	8154
1	1693	8156
1	1698	8157
1	1694	8157
1	1685	8159
1	1668	8160
1	1645	8161
1	1620	8162
1	1593	8163
1	1566	8164
1	1543	8165
1	1521	8166
1	1503	8167
1	1493	8168
1	1500	8169
1	1510	8170
1	1529	8170
1	1545	8172
1	1565	8173
1	1587	8173
1	1613	8175
1	1633	8176
1	1652	8177
1	1669	8178
1	1685	8179
1	1690	8180
1	1689	8181
1	1679	8182
1	1652	8183
1	1620	8184
1	1585	8185
1	1554	8186
1	1520	8186
1	1490	8188
1	1480	8189
1	1481	8189
1	1490	8191
1	1523	8192
1	1564	8193
1	1603	8194
1	1652	8195
1	1688	8196
1	1716	8197
1	1725	8198
1	1712	8199
1	1697	8200
1	1672	8201
1	1644	8202
1	1613	8203
1	1581	8204
1	1550	8205
1	1513	8206
1	1492	8207
1	1476	8208
1	1474	8209
1	1479	8210
1	1503	8211
1	1526	8212
1	1546	8213
1	1574	8214
1	1602	8215
1	1628	8216
1	1649	8217
1	1667	8218
1	1675	8219
1	1674	8220
1	1660	8221
1	1643	8222
1	1623	8223
1	1607	8224
1	1581	8225
1	1575	8226
1	1557	8227
1	1555	8228
1	1544	8229
1	1534	8230
1	1534	8231
1	1539	8232
1	1547	8233
1	1562	8234
1	1586	8235
1	1601	8236
1	1621	8237
1	1634	8238
1	1647	8239
1	1663	8240
1	1675	8241
1	1672	8242
1	1668	8243
1	1657	8244
1	1645	8245
1	1634	8246
1	1618	8247
1	1605	8248
1	1594	8249
1	1596	8250
1	1598	8251
1	1609	8252
1	1625	8253
1	1638	8254
1	1657	8255
1	1664	8256
1	1672	8257
1	1673	8258
1	1673	8259
1	1791	8280
1	1778	8281
1	1754	8282
1	1721	8283
1	1693	8284
1	1672	8285
1	1654	8286
1	1636	8287
1	1626	8288
1	1610	8289
1	1593	8290
1	1578	8291
1	1572	8292
1	1581	8293
1	1603	8294
1	1631	8295
1	1648	8296
1	1665	8297
1	1671	8298
1	1670	8299
1	1665	8260
1	1645	8261
1	1608	8262
1	1572	8263
1	1542	8264
1	1517	8265
1	1492	8266
1	1479	8267
1	1479	8268
1	1490	8269
1	1511	8270
1	1539	8271
1	1579	8272
1	1627	8273
1	1674	8274
1	1719	8275
1	1752	8276
1	1773	8277
1	1786	8278
1	1792	8279
1	1661	8300
1	1657	8301
1	1638	8302
1	1625	8303
1	1616	8304
1	1607	8305
1	1594	8306
1	1587	8307
1	1585	8308
1	1596	8309
1	1603	8310
1	1602	8311
1	1607	8312
1	1616	8313
1	1631	8314
1	1659	8315
1	1682	8316
1	1701	8317
1	1712	8318
1	1717	8319
1	1753	8340
1	1726	8341
1	1693	8342
1	1659	8343
1	1625	8344
1	1603	8345
1	1579	8346
1	1553	8347
1	1529	8348
1	1517	8349
1	1518	8350
1	1529	8351
1	1553	8352
1	1581	8353
1	1608	8354
1	1634	8355
1	1651	8356
1	1665	8357
1	1678	8358
1	1683	8359
1	1712	8340
1	1699	8341
1	1682	8342
1	1649	8343
1	1620	8344
1	1587	8345
1	1554	8346
1	1521	8347
1	1502	8348
1	1494	8349
1	1500	8350
1	1519	8351
1	1544	8352
1	1577	8353
1	1621	8354
1	1662	8355
1	1704	8356
1	1738	8357
1	1764	8358
1	1767	8359
1	1682	8360
1	1665	8361
1	1640	8362
1	1607	8363
1	1581	8364
1	1556	8365
1	1545	8366
1	1553	8367
1	1573	8368
1	1602	8369
1	1635	8370
1	1667	8371
1	1708	8372
1	1744	8373
1	1770	8374
1	1801	8375
1	1823	8376
1	1836	8377
1	1831	8378
1	1815	8379
1	1780	8380
1	1724	8381
1	1686	8382
1	1634	8383
1	1591	8384
1	1553	8385
1	1528	8386
1	1524	8387
1	1526	8388
1	1537	8389
1	1556	8390
1	1579	8391
1	1602	8392
1	1634	8393
1	1657	8394
1	1674	8395
1	1682	8396
1	1672	8397
1	1652	8398
1	1623	8399
1	1593	8400
1	1561	8401
1	1533	8402
1	1503	8403
1	1480	8404
1	1463	8405
1	1458	8406
1	1463	8407
1	1477	8408
1	1512	8409
1	1554	8410
1	1600	8411
1	1638	8412
1	1674	8413
1	1697	8414
1	1711	8415
1	1710	8416
1	1703	8417
1	1691	8418
1	1680	8419
1	1670	8420
1	1654	8421
1	1638	8422
1	1630	8423
1	1621	8424
1	1613	8425
1	1594	8426
1	1582	8427
1	1571	8428
1	1575	8429
1	1585	8430
1	1603	8431
1	1625	8432
1	1651	8433
1	1671	8434
1	1682	8435
1	1686	8436
1	1686	8437
1	1686	8438
1	1686	8439
1	1674	8440
1	1660	8441
1	1635	8442
1	1614	8443
1	1594	8444
1	1576	8445
1	1558	8446
1	1553	8447
1	1547	8448
1	1549	8449
1	1563	8450
1	1582	8451
1	1612	8452
1	1649	8453
1	1681	8454
1	1705	8455
1	1724	8456
1	1737	8457
1	1739	8458
1	1733	8459
1	1716	8460
1	1688	8461
1	1665	8462
1	1643	8463
1	1619	8464
1	1606	8465
1	1593	8466
1	1585	8467
1	1589	8468
1	1600	8469
1	1620	8470
1	1643	8471
1	1663	8472
1	1688	8473
1	1715	8474
1	1746	8475
1	1769	8476
1	1789	8477
1	1786	8478
1	1763	8479
1	1738	8480
1	1697	8481
1	1651	8482
1	1611	8483
1	1580	8484
1	1546	8485
1	1521	8486
1	1498	8487
1	1477	8488
1	1475	8489
1	1487	8490
1	1505	8491
1	1537	8492
1	1570	8493
1	1606	8494
1	1647	8495
1	1679	8496
1	1704	8497
1	1721	8498
1	1733	8499
1	1738	8500
1	1734	8501
1	1715	8502
1	1688	8503
1	1660	8504
1	1629	8505
1	1599	8506
1	1581	8507
1	1572	8508
1	1575	8509
1	1583	8510
1	1606	8511
1	1629	8512
1	1650	8513
1	1667	8514
1	1685	8515
1	1699	8516
1	1715	8517
1	1731	8518
1	1733	8519
1	1724	8520
1	1705	8521
1	1688	8522
1	1670	8523
1	1647	8524
1	1625	8525
1	1609	8526
1	1595	8527
1	1595	8528
1	1597	8529
1	1607	8530
1	1628	8531
1	1644	8532
1	1660	8533
1	1672	8534
1	1686	8535
1	1686	8536
1	1684	8537
1	1681	8538
1	1668	8539
1	1655	8540
1	1639	8541
1	1622	8542
1	1607	8543
1	1592	8544
1	1577	8545
1	1566	8546
1	1560	8547
1	1558	8548
1	1561	8549
1	1569	8550
1	1578	8551
1	1590	8552
1	1610	8553
1	1632	8554
1	1657	8555
1	1672	8556
1	1684	8557
1	1688	8558
1	1690	8559
1	1688	8560
1	1686	8561
1	1675	8562
1	1664	8563
1	1651	8564
1	1638	8565
1	1623	8566
1	1613	8567
1	1611	8568
1	1622	8569
1	1642	8570
1	1656	8571
1	1665	8572
1	1679	8573
1	1688	8574
1	1708	8575
1	1728	8576
1	1741	8577
1	1751	8578
1	1754	8579
1	1749	8580
1	1737	8581
1	1728	8582
1	1717	8583
1	1706	8584
1	1698	8585
1	1683	8586
1	1668	8587
1	1657	8588
1	1656	8589
1	1661	8590
1	1677	8591
1	1692	8592
1	1707	8593
1	1713	8594
1	1727	8595
1	1737	8596
1	1749	8597
1	1760	8598
1	1764	8599
1	1764	8600
1	1757	8601
1	1737	8602
1	1700	8603
1	1670	8604
1	1644	8605
1	1629	8606
1	1620	8607
1	1618	8608
1	1620	8609
1	1634	8610
1	1647	8611
1	1672	8612
1	1696	8613
1	1721	8614
1	1751	8615
1	1766	8616
1	1778	8617
1	1791	8618
1	1795	8619
1	1792	8620
1	1787	8621
1	1772	8622
1	1743	8623
1	1720	8624
1	1700	8625
1	1686	8626
1	1674	8627
1	1662	8628
1	1665	8629
1	1671	8630
1	1690	8631
1	1715	8632
1	1738	8633
1	1773	8634
1	1796	8635
1	1818	8636
1	1827	8637
1	1824	8638
1	1808	8639
1	1775	8640
1	1735	8641
1	1695	8642
1	1660	8643
1	1629	8644
1	1609	8645
1	1597	8646
1	1597	8647
1	1609	8648
1	1634	8649
1	1665	8650
1	1701	8651
1	1728	8652
1	1754	8653
1	1776	8654
1	1798	8655
1	1811	8656
1	1817	8657
1	1821	8658
1	1817	8659
1	1809	8660
1	1791	8661
1	1762	8662
1	1712	8663
1	1660	8664
1	1607	8665
1	1563	8666
1	1528	8667
1	1505	8668
1	1508	8669
1	1530	8670
1	1557	8671
1	1596	8672
1	1636	8673
1	1680	8674
1	1724	8675
1	1751	8676
1	1769	8677
1	1783	8678
1	1794	8679
1	1696	8700
1	1669	8701
1	1647	8702
1	1616	8703
1	1589	8704
1	1564	8705
1	1555	8706
1	1549	8707
1	1553	8708
1	1561	8709
1	1581	8710
1	1608	8711
1	1643	8712
1	1680	8713
1	1714	8714
1	1755	8715
1	1783	8716
1	1809	8717
1	1821	8718
1	1826	8719
1	1811	8680
1	1814	8681
1	1791	8682
1	1769	8683
1	1742	8684
1	1715	8685
1	1694	8686
1	1677	8687
1	1665	8688
1	1660	8689
1	1665	8690
1	1669	8691
1	1674	8692
1	1686	8693
1	1691	8694
1	1701	8695
1	1712	8696
1	1715	8697
1	1714	8698
1	1710	8699
1	1823	8720
1	1812	8721
1	1782	8722
1	1743	8723
1	1713	8724
1	1679	8725
1	1631	8726
1	1609	8727
1	1593	8728
1	1583	8729
1	1584	8730
1	1598	8731
1	1625	8732
1	1659	8733
1	1693	8734
1	1717	8735
1	1740	8736
1	1744	8737
1	1747	8738
1	1749	8739
1	1739	8740
1	1729	8741
1	1714	8742
1	1703	8743
1	1697	8744
1	1692	8745
1	1686	8746
1	1686	8747
1	1687	8748
1	1699	8749
1	1721	8750
1	1743	8751
1	1775	8752
1	1825	8753
1	1872	8754
1	1924	8755
1	1986	8756
1	2052	8757
1	2119	8758
1	2183	8759
1	2237	8760
1	2263	8761
1	2278	8762
1	2273	8763
1	2259	8764
1	2235	8765
1	2184	8766
1	2137	8767
1	2083	8768
1	2036	8769
1	1995	8770
1	1962	8771
1	1937	8772
1	1920	8773
1	1903	8774
1	1890	8775
1	1860	8776
1	1828	8777
1	1788	8778
1	1740	8779
1	1700	8780
1	1651	8781
1	1600	8782
1	1559	8783
1	1524	8784
1	1494	8785
1	1476	8786
1	1478	8787
1	1493	8788
1	1515	8789
1	1542	8790
1	1567	8791
1	1600	8792
1	1629	8793
1	1652	8794
1	1674	8795
1	1687	8796
1	1697	8797
1	1705	8798
1	1706	8799
1	1697	8800
1	1677	8801
1	1651	8802
1	1620	8803
1	1593	8804
1	1569	8805
1	1552	8806
1	1547	8807
1	1546	8808
1	1555	8809
1	1571	8810
1	1603	8811
1	1633	8812
1	1657	8813
1	1674	8814
1	1690	8815
1	1708	8816
1	1725	8817
1	1742	8818
1	1749	8819
1	1744	8820
1	1721	8821
1	1697	8822
1	1674	8823
1	1652	8824
1	1635	8825
1	1623	8826
1	1593	8827
1	1580	8828
1	1574	8829
1	1580	8830
1	1593	8831
1	1613	8832
1	1645	8833
1	1682	8834
1	1716	8835
1	1738	8836
1	1754	8837
1	1764	8838
1	1764	8839
1	1759	8840
1	1749	8841
1	1724	8842
1	1701	8843
1	1677	8844
1	1654	8845
1	1634	8846
1	1622	8847
1	1616	8848
1	1617	8849
1	1626	8850
1	1632	8851
1	1644	8852
1	1670	8853
1	1700	8854
1	1736	8855
1	1756	8856
1	1773	8857
1	1782	8858
1	1782	8859
1	1779	8860
1	1769	8861
1	1754	8862
1	1726	8863
1	1695	8864
1	1656	8865
1	1607	8866
1	1571	8867
1	1554	8868
1	1541	8869
1	1543	8870
1	1548	8871
1	1568	8872
1	1605	8873
1	1642	8874
1	1679	8875
1	1710	8876
1	1737	8877
1	1762	8878
1	1776	8879
1	1778	8880
1	1763	8881
1	1740	8882
1	1713	8883
1	1683	8884
1	1651	8885
1	1618	8886
1	1593	8887
1	1576	8888
1	1571	8889
1	1573	8890
1	1587	8891
1	1612	8892
1	1651	8893
1	1690	8894
1	1733	8895
1	1764	8896
1	1788	8897
1	1813	8898
1	1819	8899
1	1832	8900
1	1831	8901
1	1822	8902
1	1801	8903
1	1787	8904
1	1769	8905
1	1757	8906
1	1753	8907
1	1751	8908
1	1754	8909
1	1764	8910
1	1775	8911
1	1789	8912
1	1816	8913
1	1842	8914
1	1873	8915
1	1897	8916
1	1908	8917
1	1913	8918
1	1908	8919
1	1791	8940
1	1778	8941
1	1760	8942
1	1738	8943
1	1721	8944
1	1710	8945
1	1692	8946
1	1680	8947
1	1672	8948
1	1679	8949
1	1695	8950
1	1713	8951
1	1737	8952
1	1755	8953
1	1767	8954
1	1786	8955
1	1795	8956
1	1815	8957
1	1827	8958
1	1834	8959
1	1885	8940
1	1843	8941
1	1787	8942
1	1718	8943
1	1658	8944
1	1605	8945
1	1562	8946
1	1544	8947
1	1541	8948
1	1555	8949
1	1581	8950
1	1618	8951
1	1651	8952
1	1682	8953
1	1707	8954
1	1725	8955
1	1747	8956
1	1764	8957
1	1778	8958
1	1791	8959
1	1841	8960
1	1832	8961
1	1814	8962
1	1781	8963
1	1754	8964
1	1732	8965
1	1717	8966
1	1714	8967
1	1718	8968
1	1727	8969
1	1738	8970
1	1752	8971
1	1769	8972
1	1792	8973
1	1818	8974
1	1845	8975
1	1867	8976
1	1878	8977
1	1887	8978
1	1886	8979
1	1878	8980
1	1867	8981
1	1854	8982
1	1839	8983
1	1827	8984
1	1817	8985
1	1795	8986
1	1794	8987
1	1802	8988
1	1825	8989
1	1857	8990
1	1894	8991
1	1926	8992
1	1958	8993
1	1986	8994
1	2007	8995
1	2025	8996
1	2037	8997
1	2039	8998
1	2030	8999
1	2014	9000
1	1979	9001
1	1944	9002
1	1899	9003
1	1863	9004
1	1834	9005
1	1811	9006
1	1800	9007
1	1811	9008
1	1823	9009
1	1841	9010
1	1854	9011
1	1867	9012
1	1883	9013
1	1896	9014
1	1916	9015
1	1926	9016
1	1930	9017
1	1924	9018
1	1917	9019
1	1908	9020
1	1884	9021
1	1862	9022
1	1842	9023
1	1841	9024
1	1829	9025
1	1803	9026
1	1786	9027
1	1776	9028
1	1767	9029
1	1773	9030
1	1781	9031
1	1792	9032
1	1815	9033
1	1825	9034
1	1828	9035
1	1832	9036
1	1829	9037
1	1820	9038
1	1794	9039
1	1777	9060
1	1748	9061
1	1713	9062
1	1678	9063
1	1638	9064
1	1600	9065
1	1562	9066
1	1533	9067
1	1515	9068
1	1508	9069
1	1516	9070
1	1535	9071
1	1563	9072
1	1586	9073
1	1607	9074
1	1631	9075
1	1648	9076
1	1661	9077
1	1665	9078
1	1662	9079
1	1769	9040
1	1738	9041
1	1711	9042
1	1682	9043
1	1651	9044
1	1618	9045
1	1581	9046
1	1556	9047
1	1540	9048
1	1533	9049
1	1550	9050
1	1574	9051
1	1607	9052
1	1646	9053
1	1686	9054
1	1724	9055
1	1755	9056
1	1775	9057
1	1787	9058
1	1788	9059
1	1659	9080
1	1634	9081
1	1607	9082
1	1581	9083
1	1559	9084
1	1542	9085
1	1529	9086
1	1517	9087
1	1509	9088
1	1512	9089
1	1514	9090
1	1518	9091
1	1530	9092
1	1542	9093
1	1554	9094
1	1568	9095
1	1580	9096
1	1593	9097
1	1611	9098
1	1634	9099
1	1647	9100
1	1652	9101
1	1654	9102
1	1648	9103
1	1639	9104
1	1634	9105
1	1621	9106
1	1608	9107
1	1602	9108
1	1593	9109
1	1591	9110
1	1584	9111
1	1586	9112
1	1595	9113
1	1605	9114
1	1613	9115
1	1635	9116
1	1660	9117
1	1683	9118
1	1696	9119
1	1698	9120
1	1683	9121
1	1665	9122
1	1643	9123
1	1620	9124
1	1598	9125
1	1581	9126
1	1556	9127
1	1544	9128
1	1534	9129
1	1530	9130
1	1532	9131
1	1543	9132
1	1557	9133
1	1580	9134
1	1603	9135
1	1617	9136
1	1634	9137
1	1645	9138
1	1651	9139
1	1706	9160
1	1674	9161
1	1643	9162
1	1615	9163
1	1597	9164
1	1589	9165
1	1579	9166
1	1573	9167
1	1566	9168
1	1561	9169
1	1570	9170
1	1584	9171
1	1605	9172
1	1629	9173
1	1648	9174
1	1668	9175
1	1683	9176
1	1687	9177
1	1683	9178
1	1672	9179
1	1655	9140
1	1649	9141
1	1634	9142
1	1607	9143
1	1577	9144
1	1542	9145
1	1505	9146
1	1483	9147
1	1476	9148
1	1484	9149
1	1503	9150
1	1528	9151
1	1555	9152
1	1594	9153
1	1634	9154
1	1680	9155
1	1715	9156
1	1741	9157
1	1747	9158
1	1734	9159
1	1654	9180
1	1622	9181
1	1589	9182
1	1544	9183
1	1502	9184
1	1464	9185
1	1437	9186
1	1429	9187
1	1440	9188
1	1464	9189
1	1491	9190
1	1526	9191
1	1562	9192
1	1604	9193
1	1643	9194
1	1675	9195
1	1701	9196
1	1724	9197
1	1737	9198
1	1729	9199
1	1714	9200
1	1686	9201
1	1654	9202
1	1619	9203
1	1589	9204
1	1555	9205
1	1521	9206
1	1491	9207
1	1484	9208
1	1496	9209
1	1510	9210
1	1520	9211
1	1534	9212
1	1553	9213
1	1559	9214
1	1585	9215
1	1612	9216
1	1647	9217
1	1677	9218
1	1700	9219
1	1715	9240
1	1716	9241
1	1718	9242
1	1716	9243
1	1712	9244
1	1698	9245
1	1686	9246
1	1670	9247
1	1659	9248
1	1651	9249
1	1655	9250
1	1667	9251
1	1685	9252
1	1703	9253
1	1717	9254
1	1727	9255
1	1715	9256
1	1695	9257
1	1669	9258
1	1647	9259
1	1718	9220
1	1728	9221
1	1731	9222
1	1713	9223
1	1697	9224
1	1668	9225
1	1637	9226
1	1607	9227
1	1587	9228
1	1579	9229
1	1574	9230
1	1577	9231
1	1585	9232
1	1595	9233
1	1619	9234
1	1639	9235
1	1662	9236
1	1676	9237
1	1693	9238
1	1708	9239
1	1628	9260
1	1592	9261
1	1554	9262
1	1516	9263
1	1489	9264
1	1472	9265
1	1463	9266
1	1465	9267
1	1476	9268
1	1503	9269
1	1535	9270
1	1572	9271
1	1611	9272
1	1647	9273
1	1672	9274
1	1697	9275
1	1703	9276
1	1693	9277
1	1665	9278
1	1634	9279
1	1602	9280
1	1574	9281
1	1549	9282
1	1529	9283
1	1517	9284
1	1513	9285
1	1516	9286
1	1529	9287
1	1552	9288
1	1572	9289
1	1600	9290
1	1620	9291
1	1638	9292
1	1652	9293
1	1660	9294
1	1662	9295
1	1663	9296
1	1661	9297
1	1652	9298
1	1638	9299
1	1620	9300
1	1593	9301
1	1571	9302
1	1555	9303
1	1538	9304
1	1529	9305
1	1518	9306
1	1513	9307
1	1512	9308
1	1520	9309
1	1530	9310
1	1550	9311
1	1569	9312
1	1593	9313
1	1612	9314
1	1631	9315
1	1636	9316
1	1647	9317
1	1655	9318
1	1660	9319
1	1673	9320
1	1674	9321
1	1661	9322
1	1654	9323
1	1634	9324
1	1608	9325
1	1591	9326
1	1569	9327
1	1555	9328
1	1551	9329
1	1557	9330
1	1571	9331
1	1592	9332
1	1620	9333
1	1652	9334
1	1687	9335
1	1724	9336
1	1747	9337
1	1749	9338
1	1737	9339
1	1720	9340
1	1691	9341
1	1662	9342
1	1637	9343
1	1610	9344
1	1584	9345
1	1554	9346
1	1535	9347
1	1526	9348
1	1514	9349
1	1510	9350
1	1504	9351
1	1507	9352
1	1508	9353
1	1514	9354
1	1526	9355
1	1548	9356
1	1576	9357
1	1607	9358
1	1643	9359
1	1641	9380
1	1631	9381
1	1615	9382
1	1597	9383
1	1581	9384
1	1565	9385
1	1547	9386
1	1531	9387
1	1529	9388
1	1529	9389
1	1529	9390
1	1529	9391
1	1531	9392
1	1539	9393
1	1553	9394
1	1580	9395
1	1607	9396
1	1629	9397
1	1644	9398
1	1649	9399
1	1660	9360
1	1659	9361
1	1647	9362
1	1629	9363
1	1601	9364
1	1572	9365
1	1537	9366
1	1510	9367
1	1494	9368
1	1490	9369
1	1499	9370
1	1517	9371
1	1540	9372
1	1574	9373
1	1607	9374
1	1632	9375
1	1643	9376
1	1647	9377
1	1647	9378
1	1644	9379
1	1641	9400
1	1629	9401
1	1608	9402
1	1593	9403
1	1582	9404
1	1581	9405
1	1569	9406
1	1560	9407
1	1554	9408
1	1553	9409
1	1567	9410
1	1581	9411
1	1597	9412
1	1608	9413
1	1620	9414
1	1621	9415
1	1616	9416
1	1608	9417
1	1608	9418
1	1620	9419
1	1629	9440
1	1607	9441
1	1590	9442
1	1568	9443
1	1546	9444
1	1528	9445
1	1505	9446
1	1490	9447
1	1487	9448
1	1491	9449
1	1503	9450
1	1514	9451
1	1535	9452
1	1564	9453
1	1592	9454
1	1629	9455
1	1656	9456
1	1660	9457
1	1658	9458
1	1642	9459
1	1626	9420
1	1625	9421
1	1620	9422
1	1618	9423
1	1616	9424
1	1607	9425
1	1590	9426
1	1567	9427
1	1553	9428
1	1539	9429
1	1530	9430
1	1542	9431
1	1562	9432
1	1586	9433
1	1607	9434
1	1626	9435
1	1634	9436
1	1636	9437
1	1636	9438
1	1638	9439
1	1616	9460
1	1584	9461
1	1548	9462
1	1519	9463
1	1499	9464
1	1490	9465
1	1489	9466
1	1503	9467
1	1516	9468
1	1534	9469
1	1561	9470
1	1585	9471
1	1613	9472
1	1647	9473
1	1685	9474
1	1718	9475
1	1751	9476
1	1765	9477
1	1770	9478
1	1764	9479
1	1751	9480
1	1716	9481
1	1686	9482
1	1652	9483
1	1621	9484
1	1597	9485
1	1566	9486
1	1541	9487
1	1526	9488
1	1520	9489
1	1523	9490
1	1530	9491
1	1548	9492
1	1573	9493
1	1589	9494
1	1600	9495
1	1605	9496
1	1607	9497
1	1607	9498
1	1606	9499
1	1602	9500
1	1582	9501
1	1562	9502
1	1535	9503
1	1510	9504
1	1489	9505
1	1476	9506
1	1471	9507
1	1476	9508
1	1493	9509
1	1521	9510
1	1553	9511
1	1587	9512
1	1625	9513
1	1654	9514
1	1683	9515
1	1709	9516
1	1728	9517
1	1739	9518
1	1740	9519
1	1685	9540
1	1661	9541
1	1634	9542
1	1606	9543
1	1576	9544
1	1550	9545
1	1530	9546
1	1516	9547
1	1506	9548
1	1508	9549
1	1523	9550
1	1537	9551
1	1554	9552
1	1572	9553
1	1584	9554
1	1590	9555
1	1580	9556
1	1558	9557
1	1539	9558
1	1524	9559
1	1737	9520
1	1731	9521
1	1716	9522
1	1698	9523
1	1675	9524
1	1652	9525
1	1626	9526
1	1595	9527
1	1565	9528
1	1539	9529
1	1525	9530
1	1522	9531
1	1530	9532
1	1553	9533
1	1586	9534
1	1613	9535
1	1643	9536
1	1662	9537
1	1684	9538
1	1688	9539
1	1517	9560
1	1510	9561
1	1503	9562
1	1503	9563
1	1503	9564
1	1514	9565
1	1526	9566
1	1538	9567
1	1556	9568
1	1580	9569
1	1607	9570
1	1635	9571
1	1674	9572
1	1708	9573
1	1735	9574
1	1757	9575
1	1767	9576
1	1778	9577
1	1780	9578
1	1772	9579
1	1760	9580
1	1737	9581
1	1706	9582
1	1681	9583
1	1660	9584
1	1644	9585
1	1623	9586
1	1602	9587
1	1577	9588
1	1555	9589
1	1548	9590
1	1543	9591
1	1542	9592
1	1546	9593
1	1555	9594
1	1567	9595
1	1584	9596
1	1600	9597
1	1609	9598
1	1607	9599
1	1597	9600
1	1586	9601
1	1589	9602
1	1594	9603
1	1603	9604
1	1621	9605
1	1633	9606
1	1634	9607
1	1638	9608
1	1637	9609
1	1639	9610
1	1643	9611
1	1647	9612
1	1651	9613
1	1658	9614
1	1656	9615
1	1646	9616
1	1638	9617
1	1633	9618
1	1621	9619
1	1612	9620
1	1600	9621
1	1581	9622
1	1571	9623
1	1555	9624
1	1541	9625
1	1533	9626
1	1529	9627
1	1526	9628
1	1528	9629
1	1529	9630
1	1544	9631
1	1565	9632
1	1584	9633
1	1607	9634
1	1636	9635
1	1665	9636
1	1686	9637
1	1699	9638
1	1703	9639
1	1695	9640
1	1680	9641
1	1660	9642
1	1647	9643
1	1644	9644
1	1634	9645
1	1616	9646
1	1604	9647
1	1595	9648
1	1593	9649
1	1602	9650
1	1607	9651
1	1619	9652
1	1634	9653
1	1654	9654
1	1665	9655
1	1682	9656
1	1688	9657
1	1692	9658
1	1685	9659
1	1669	9660
1	1646	9661
1	1633	9662
1	1625	9663
1	1618	9664
1	1616	9665
1	1607	9666
1	1603	9667
1	1605	9668
1	1612	9669
1	1629	9670
1	1651	9671
1	1679	9672
1	1711	9673
1	1740	9674
1	1764	9675
1	1778	9676
1	1790	9677
1	1794	9678
1	1791	9679
1	1778	9680
1	1755	9681
1	1724	9682
1	1692	9683
1	1658	9684
1	1626	9685
1	1603	9686
1	1593	9687
1	1596	9688
1	1607	9689
1	1626	9690
1	1639	9691
1	1661	9692
1	1686	9693
1	1710	9694
1	1738	9695
1	1757	9696
1	1767	9697
1	1767	9698
1	1760	9699
1	1742	9700
1	1715	9701
1	1686	9702
1	1658	9703
1	1632	9704
1	1607	9705
1	1584	9706
1	1566	9707
1	1556	9708
1	1555	9709
1	1566	9710
1	1570	9711
1	1577	9712
1	1581	9713
1	1592	9714
1	1603	9715
1	1611	9716
1	1621	9717
1	1623	9718
1	1616	9719
1	1603	9720
1	1577	9721
1	1549	9722
1	1525	9723
1	1501	9724
1	1476	9725
1	1461	9726
1	1448	9727
1	1437	9728
1	1449	9729
1	1464	9730
1	1485	9731
1	1503	9732
1	1528	9733
1	1553	9734
1	1577	9735
1	1594	9736
1	1606	9737
1	1610	9738
1	1610	9739
1	1606	9740
1	1584	9741
1	1562	9742
1	1546	9743
1	1540	9744
1	1534	9745
1	1533	9746
1	1537	9747
1	1546	9748
1	1561	9749
1	1591	9750
1	1616	9751
1	1647	9752
1	1672	9753
1	1688	9754
1	1705	9755
1	1714	9756
1	1728	9757
1	1728	9758
1	1720	9759
1	1703	9760
1	1681	9761
1	1654	9762
1	1625	9763
1	1597	9764
1	1574	9765
1	1547	9766
1	1527	9767
1	1512	9768
1	1507	9769
1	1525	9770
1	1542	9771
1	1569	9772
1	1606	9773
1	1641	9774
1	1674	9775
1	1712	9776
1	1751	9777
1	1785	9778
1	1809	9779
1	1815	9780
1	1801	9781
1	1799	9782
1	1802	9783
1	1801	9784
1	1803	9785
1	1800	9786
1	1814	9787
1	1841	9788
1	1884	9789
1	1940	9790
1	1995	9791
1	2052	9792
1	2116	9793
1	2174	9794
1	2220	9795
1	2251	9796
1	2269	9797
1	2273	9798
1	2256	9799
1	2222	9800
1	2163	9801
1	2096	9802
1	2026	9803
1	1953	9804
1	1885	9805
1	1818	9806
1	1751	9807
1	1690	9808
1	1634	9809
1	1594	9810
1	1567	9811
1	1555	9812
1	1543	9813
1	1529	9814
1	1525	9815
1	1517	9816
1	1523	9817
1	1528	9818
1	1527	9819
1	1518	9820
1	1505	9821
1	1478	9822
1	1450	9823
1	1424	9824
1	1400	9825
1	1384	9826
1	1377	9827
1	1384	9828
1	1407	9829
1	1434	9830
1	1468	9831
1	1502	9832
1	1533	9833
1	1566	9834
1	1602	9835
1	1623	9836
1	1636	9837
1	1638	9838
1	1628	9839
1	1611	9840
1	1596	9841
1	1582	9842
1	1571	9843
1	1559	9844
1	1557	9845
1	1555	9846
1	1549	9847
1	1546	9848
1	1544	9849
1	1544	9850
1	1548	9851
1	1563	9852
1	1589	9853
1	1619	9854
1	1652	9855
1	1684	9856
1	1713	9857
1	1737	9858
1	1746	9859
1	1751	9860
1	1742	9861
1	1736	9862
1	1728	9863
1	1716	9864
1	1699	9865
1	1674	9866
1	1647	9867
1	1629	9868
1	1626	9869
1	1629	9870
1	1626	9871
1	1629	9872
1	1629	9873
1	1630	9874
1	1634	9875
1	1634	9876
1	1630	9877
1	1623	9878
1	1611	9879
1	1599	9880
1	1582	9881
1	1564	9882
1	1547	9883
1	1530	9884
1	1520	9885
1	1508	9886
1	1517	9887
1	1539	9888
1	1566	9889
1	1592	9890
1	1611	9891
1	1634	9892
1	1652	9893
1	1661	9894
1	1677	9895
1	1696	9896
1	1712	9897
1	1718	9898
1	1718	9899
1	1714	9900
1	1704	9901
1	1688	9902
1	1661	9903
1	1635	9904
1	1616	9905
1	1593	9906
1	1574	9907
1	1555	9908
1	1541	9909
1	1533	9910
1	1533	9911
1	1544	9912
1	1565	9913
1	1590	9914
1	1620	9915
1	1638	9916
1	1659	9917
1	1674	9918
1	1686	9919
1	1703	9920
1	1712	9921
1	1703	9922
1	1704	9923
1	1696	9924
1	1686	9925
1	1678	9926
1	1669	9927
1	1668	9928
1	1674	9929
1	1691	9930
1	1712	9931
1	1731	9932
1	1752	9933
1	1764	9934
1	1770	9935
1	1769	9936
1	1757	9937
1	1751	9938
1	1733	9939
1	1712	9940
1	1688	9941
1	1667	9942
1	1647	9943
1	1633	9944
1	1625	9945
1	1610	9946
1	1607	9947
1	1608	9948
1	1615	9949
1	1633	9950
1	1647	9951
1	1670	9952
1	1690	9953
1	1712	9954
1	1728	9955
1	1738	9956
1	1748	9957
1	1747	9958
1	1746	9959
1	1746	9960
1	1738	9961
1	1725	9962
1	1712	9963
1	1693	9964
1	1680	9965
1	1661	9966
1	1650	9967
1	1644	9968
1	1635	9969
1	1639	9970
1	1647	9971
1	1662	9972
1	1682	9973
1	1705	9974
1	1726	9975
1	1737	9976
1	1748	9977
1	1760	9978
1	1769	9979
1	1778	9980
1	1770	9981
1	1759	9982
1	1742	9983
1	1718	9984
1	1690	9985
1	1660	9986
1	1634	9987
1	1616	9988
1	1608	9989
1	1608	9990
1	1607	9991
1	1617	9992
1	1638	9993
1	1670	9994
1	1703	9995
1	1734	9996
1	1764	9997
1	1796	9998
1	1828	9999
1	1847	10000
1	1856	10001
1	1854	10002
1	1845	10003
1	1838	10004
1	1822	10005
1	1803	10006
1	1796	10007
1	1794	10008
1	1800	10009
1	1818	10010
1	1832	10011
1	1849	10012
1	1871	10013
1	1895	10014
1	1913	10015
1	1934	10016
1	1944	10017
1	1942	10018
1	1929	10019
1	1914	10020
1	1890	10021
1	1859	10022
1	1841	10023
1	1821	10024
1	1803	10025
1	1793	10026
1	1784	10027
1	1781	10028
1	1782	10029
1	1787	10030
1	1791	10031
1	1816	10032
1	1839	10033
1	1858	10034
1	1877	10035
1	1895	10036
1	1908	10037
1	1921	10038
1	1921	10039
1	1911	10040
1	1901	10041
1	1896	10042
1	1886	10043
1	1878	10044
1	1869	10045
1	1855	10046
1	1843	10047
1	1834	10048
1	1827	10049
1	1827	10050
1	1826	10051
1	1835	10052
1	1850	10053
1	1860	10054
1	1877	10055
1	1884	10056
1	1882	10057
1	1881	10058
1	1882	10059
1	1873	10060
1	1854	10061
1	1827	10062
1	1791	10063
1	1762	10064
1	1737	10065
1	1705	10066
1	1686	10067
1	1675	10068
1	1672	10069
1	1686	10070
1	1705	10071
1	1738	10072
1	1773	10073
1	1809	10074
1	1830	10075
1	1845	10076
1	1845	10077
1	1837	10078
1	1815	10079
1	1778	10080
1	1737	10081
1	1692	10082
1	1651	10083
1	1615	10084
1	1589	10085
1	1566	10086
1	1558	10087
1	1564	10088
1	1569	10089
1	1577	10090
1	1587	10091
