#Date:= 2024-10-01T14:56:47.227842
#Sampling Rate(Hz):= 1000
#Labels:= LOD	ECG	TS
1	1849	20
1	1849	21
1	1855	22
1	1871	23
1	1894	24
1	1916	25
1	1935	26
1	1955	27
1	1973	28
1	1985	29
1	1994	30
1	1994	31
1	1985	32
1	1972	33
1	1960	34
1	1942	35
1	1922	36
1	1896	37
1	1878	38
1	1864	39
1	1856	40
1	1856	41
1	1859	42
1	1866	43
1	1867	44
1	1867	45
1	1861	46
1	1856	47
1	1867	48
1	1874	49
1	1885	50
1	1904	51
1	1913	52
1	1922	53
1	1933	54
1	1935	55
1	1935	56
1	1934	57
1	1930	58
1	1923	59
1	1922	60
1	1924	61
1	1927	62
1	1930	63
1	1927	64
1	1930	65
1	1932	66
1	1937	67
1	1948	68
1	1947	69
1	1932	70
1	1916	71
1	1895	72
1	1877	73
1	1864	74
1	1856	75
1	1856	76
1	1864	77
1	1883	78
1	1903	79
1	1917	80
1	1929	81
1	1940	82
1	1948	83
1	1952	84
1	1960	85
1	1958	86
1	1974	87
1	1981	88
1	1986	89
1	1990	90
1	1999	91
1	2006	92
1	2013	93
1	2016	94
1	2014	95
1	2012	96
1	2006	97
1	2000	98
1	1995	99
1	1985	100
1	1974	101
1	1964	102
1	1952	103
1	1937	104
1	1919	105
1	1895	106
1	1870	107
1	1860	108
1	1857	109
1	1861	110
1	1861	111
1	1869	112
1	1878	113
1	1902	114
1	1926	115
1	1953	116
1	1974	117
1	1987	118
1	1996	119
1	2001	120
1	2000	121
1	1996	122
1	1977	123
1	1953	124
1	1936	125
1	1907	126
1	1886	127
1	1857	128
1	1841	129
1	1827	130
1	1834	131
1	1839	132
1	1847	133
1	1861	134
1	1882	135
1	1904	136
1	1914	137
1	1926	138
1	1940	139
1	1952	140
1	1967	141
1	1976	142
1	1999	143
1	2005	144
1	2005	145
1	2000	146
1	2001	147
1	2003	148
1	2008	149
1	2008	150
1	2005	151
1	2000	152
1	1998	153
1	1992	154
1	1986	155
1	1975	156
1	1961	157
1	1947	158
1	1927	159
1	1915	180
1	1901	181
1	1890	182
1	1878	183
1	1869	184
1	1865	185
1	1859	186
1	1859	187
1	1868	188
1	1883	189
1	1906	190
1	1935	191
1	1962	192
1	1980	193
1	1991	194
1	1988	195
1	1974	196
1	1956	197
1	1931	198
1	1908	199
1	2246	200
1	2281	201
1	2320	202
1	2346	203
1	2376	204
1	2400	205
1	2426	206
1	2456	207
1	2480	208
1	2502	209
1	2516	210
1	2533	211
1	2538	212
1	2543	213
1	2540	214
1	2530	215
1	2522	216
1	2500	217
1	2462	218
1	2401	219
1	1896	180
1	1886	181
1	1875	182
1	1869	183
1	1859	184
1	1847	185
1	1836	186
1	1838	187
1	1842	188
1	1854	189
1	1873	190
1	1909	191
1	1952	192
1	1999	193
1	2047	194
1	2093	195
1	2131	196
1	2157	197
1	2185	198
1	2210	199
1	2330	220
1	2262	221
1	2173	222
1	2093	223
1	2009	224
1	1930	225
1	1862	226
1	1807	227
1	1763	228
1	1734	229
1	1712	230
1	1696	231
1	1674	232
1	1668	233
1	1662	234
1	1675	235
1	1690	236
1	1717	237
1	1752	238
1	1791	239
1	1823	240
1	1843	241
1	1854	242
1	1868	243
1	1881	244
1	1896	245
1	1907	246
1	1917	247
1	1919	248
1	1916	249
1	1914	250
1	1921	251
1	1926	252
1	1942	253
1	1953	254
1	1969	255
1	1984	256
1	1991	257
1	1996	258
1	1993	259
1	1980	260
1	1975	261
1	1965	262
1	1952	263
1	1942	264
1	1931	265
1	1923	266
1	1919	267
1	1917	268
1	1914	269
1	1915	270
1	1913	271
1	1907	272
1	1908	273
1	1917	274
1	1930	275
1	1951	276
1	1973	277
1	1993	278
1	2009	279
1	2021	280
1	2029	281
1	2034	282
1	2039	283
1	2040	284
1	2034	285
1	2021	286
1	2012	287
1	2012	288
1	2017	289
1	2026	290
1	2034	291
1	2035	292
1	2024	293
1	2006	294
1	1994	295
1	1974	296
1	1954	297
1	1937	298
1	1922	299
1	1921	300
1	1922	301
1	1922	302
1	1927	303
1	1939	304
1	1950	305
1	1965	306
1	1991	307
1	2011	308
1	2030	309
1	2053	310
1	2075	311
1	2089	312
1	2097	313
1	2104	314
1	2104	315
1	2100	316
1	2089	317
1	2078	318
1	2066	319
1	2058	320
1	2054	321
1	2058	322
1	2061	323
1	2061	324
1	2073	325
1	2075	326
1	2063	327
1	2060	328
1	2061	329
1	2067	330
1	2070	331
1	2068	332
1	2061	333
1	2052	334
1	2039	335
1	2018	336
1	1989	337
1	1973	338
1	1949	339
1	2099	360
1	2111	361
1	2120	362
1	2133	363
1	2144	364
1	2149	365
1	2157	366
1	2157	367
1	2153	368
1	2150	369
1	2150	370
1	2145	371
1	2138	372
1	2127	373
1	2112	374
1	2095	375
1	2079	376
1	2065	377
1	2061	378
1	2065	379
1	1944	340
1	1935	341
1	1935	342
1	1946	343
1	1962	344
1	1985	345
1	2008	346
1	2021	347
1	2034	348
1	2048	349
1	2053	350
1	2061	351
1	2071	352
1	2070	353
1	2064	354
1	2061	355
1	2063	356
1	2070	357
1	2080	358
1	2089	359
1	2147	400
1	2149	401
1	2153	402
1	2161	403
1	2173	404
1	2183	405
1	2192	406
1	2186	407
1	2183	408
1	2175	409
1	2169	410
1	2159	411
1	2153	412
1	2135	413
1	2122	414
1	2107	415
1	2099	416
1	2083	417
1	2071	418
1	2063	419
1	2066	380
1	2078	381
1	2079	382
1	2081	383
1	2080	384
1	2086	385
1	2092	386
1	2093	387
1	2102	388
1	2108	389
1	2120	390
1	2135	391
1	2149	392
1	2156	393
1	2157	394
1	2153	395
1	2156	396
1	2155	397
1	2150	398
1	2150	399
1	2052	420
1	2043	421
1	2039	422
1	2048	423
1	2057	424
1	2070	425
1	2080	426
1	2092	427
1	2101	428
1	2114	429
1	2135	430
1	2156	431
1	2174	432
1	2194	433
1	2215	434
1	2238	435
1	2254	436
1	2251	437
1	2237	438
1	2217	439
1	2192	440
1	2168	441
1	2155	442
1	2131	443
1	2112	444
1	2097	445
1	2079	446
1	2061	447
1	2043	448
1	2021	449
1	2003	450
1	1990	451
1	1975	452
1	1972	453
1	1965	454
1	1962	455
1	1972	456
1	1980	457
1	1993	458
1	2002	459
1	2013	460
1	2019	461
1	2030	462
1	2035	463
1	2037	464
1	2030	465
1	2023	466
1	2006	467
1	1998	468
1	1976	469
1	1951	470
1	1939	471
1	1917	472
1	1900	473
1	1893	474
1	1885	475
1	1878	476
1	1869	477
1	1856	478
1	1847	479
1	1846	480
1	1854	481
1	1862	482
1	1880	483
1	1899	484
1	1916	485
1	1927	486
1	1928	487
1	1914	488
1	1897	489
1	1881	490
1	1867	491
1	1859	492
1	1854	493
1	1852	494
1	1847	495
1	1843	496
1	1832	497
1	1826	498
1	1818	499
1	1816	500
1	1819	501
1	1826	502
1	1829	503
1	1825	504
1	1821	505
1	1822	506
1	1827	507
1	1836	508
1	1844	509
1	1856	510
1	1868	511
1	1873	512
1	1884	513
1	1886	514
1	1885	515
1	1880	516
1	1878	517
1	1869	518
1	1859	519
1	1845	520
1	1832	521
1	1814	522
1	1800	523
1	1791	524
1	1789	525
1	1787	526
1	1783	527
1	1788	528
1	1796	529
1	1814	530
1	1823	531
1	1838	532
1	1849	533
1	1859	534
1	1872	535
1	1869	536
1	1853	537
1	1827	538
1	1791	539
1	1764	540
1	1748	541
1	1731	542
1	1722	543
1	1716	544
1	1713	545
1	1712	546
1	1724	547
1	1744	548
1	1769	549
1	1802	550
1	1839	551
1	1867	552
1	1888	553
1	1898	554
1	1900	555
1	1893	556
1	1869	557
1	1844	558
1	1817	559
1	1795	560
1	1791	561
1	1779	562
1	1769	563
1	1760	564
1	1751	565
1	1749	566
1	1752	567
1	1757	568
1	1762	569
1	1765	570
1	1775	571
1	1783	572
1	1801	573
1	1827	574
1	1854	575
1	1881	576
1	1901	577
1	1918	578
1	1926	579
1	1922	580
1	1910	581
1	1895	582
1	1872	583
1	1845	584
1	1822	585
1	1798	586
1	1766	587
1	1746	588
1	1726	589
1	1721	590
1	1733	591
1	1751	592
1	1775	593
1	1791	594
1	1817	595
1	1841	596
1	1861	597
1	1875	598
1	1888	599
1	1887	600
1	1875	601
1	1854	602
1	1834	603
1	1811	604
1	1789	605
1	1765	606
1	1754	607
1	1738	608
1	1728	609
1	1716	610
1	1712	611
1	1710	612
1	1713	613
1	1728	614
1	1746	615
1	1770	616
1	1791	617
1	1817	618
1	1834	619
1	1843	620
1	1852	621
1	1850	622
1	1839	623
1	1833	624
1	1821	625
1	1814	626
1	1798	627
1	1803	628
1	1818	629
1	1842	630
1	1857	631
1	1868	632
1	1877	633
1	1881	634
1	1877	635
1	1858	636
1	1841	637
1	1815	638
1	1787	639
1	1769	640
1	1751	641
1	1738	642
1	1728	643
1	1730	644
1	1737	645
1	1746	646
1	1753	647
1	1767	648
1	1787	649
1	1812	650
1	1831	651
1	1855	652
1	1860	653
1	1866	654
1	1863	655
1	1856	656
1	1844	657
1	1832	658
1	1820	659
1	1813	660
1	1800	661
1	1788	662
1	1775	663
1	1767	664
1	1764	665
1	1767	666
1	1772	667
1	1782	668
1	1796	669
1	1821	670
1	1845	671
1	1873	672
1	1899	673
1	1922	674
1	1931	675
1	1937	676
1	1933	677
1	1927	678
1	1914	679
1	1895	680
1	1881	681
1	1864	682
1	1845	683
1	1837	684
1	1819	685
1	1803	686
1	1782	687
1	1767	688
1	1760	689
1	1751	690
1	1752	691
1	1764	692
1	1778	693
1	1796	694
1	1815	695
1	1832	696
1	1843	697
1	1848	698
1	1851	699
1	1844	700
1	1831	701
1	1816	702
1	1796	703
1	1788	704
1	1780	705
1	1770	706
1	1760	707
1	1746	708
1	1736	709
1	1721	710
1	1709	711
1	1708	712
1	1707	713
1	1716	714
1	1731	715
1	1743	716
1	1756	717
1	1764	718
1	1766	719
1	1773	720
1	1778	721
1	1770	722
1	1764	723
1	1751	724
1	1739	725
1	1726	726
1	1716	727
1	1713	728
1	1725	729
1	1755	730
1	1783	731
1	1814	732
1	1836	733
1	1848	734
1	1854	735
1	1846	736
1	1826	737
1	1812	738
1	1795	739
1	1816	760
1	1817	761
1	1814	762
1	1800	763
1	1785	764
1	1766	765
1	1751	766
1	1737	767
1	1727	768
1	1724	769
1	1719	770
1	1727	771
1	1734	772
1	1744	773
1	1761	774
1	1780	775
1	1796	776
1	1821	777
1	1843	778
1	1864	779
1	1782	740
1	1765	741
1	1755	742
1	1738	743
1	1724	744
1	1710	745
1	1695	746
1	1683	747
1	1672	748
1	1661	749
1	1652	750
1	1643	751
1	1634	752
1	1641	753
1	1657	754
1	1681	755
1	1715	756
1	1750	757
1	1780	758
1	1801	759
1	1884	780
1	1913	781
1	1938	782
1	1976	783
1	2026	784
1	2088	785
1	2152	786
1	2210	787
1	2260	788
1	2299	789
1	2332	790
1	2366	791
1	2393	792
1	2415	793
1	2431	794
1	2430	795
1	2418	796
1	2393	797
1	2363	798
1	2320	799
1	2265	800
1	2202	801
1	2122	802
1	2031	803
1	1940	804
1	1843	805
1	1743	806
1	1656	807
1	1581	808
1	1521	809
1	1485	810
1	1463	811
1	1451	812
1	1456	813
1	1475	814
1	1497	815
1	1514	816
1	1530	817
1	1539	818
1	1547	819
1	1556	820
1	1569	821
1	1570	822
1	1575	823
1	1583	824
1	1594	825
1	1607	826
1	1620	827
1	1634	828
1	1651	829
1	1667	830
1	1683	831
1	1691	832
1	1688	833
1	1686	834
1	1685	835
1	1691	836
1	1697	837
1	1712	838
1	1729	839
1	1817	860
1	1819	861
1	1819	862
1	1824	863
1	1836	864
1	1843	865
1	1847	866
1	1847	867
1	1838	868
1	1818	869
1	1793	870
1	1773	871
1	1740	872
1	1717	873
1	1699	874
1	1686	875
1	1683	876
1	1679	877
1	1682	878
1	1695	879
1	1715	880
1	1746	881
1	1774	882
1	1803	883
1	1830	884
1	1843	885
1	1850	886
1	1846	887
1	1843	888
1	1831	889
1	1817	890
1	1813	891
1	1798	892
1	1790	893
1	1778	894
1	1767	895
1	1754	896
1	1738	897
1	1726	898
1	1712	899
1	1752	840
1	1774	841
1	1788	842
1	1801	843
1	1810	844
1	1797	845
1	1779	846
1	1767	847
1	1751	848
1	1741	849
1	1736	850
1	1733	851
1	1739	852
1	1751	853
1	1757	854
1	1765	855
1	1780	856
1	1790	857
1	1800	858
1	1815	859
1	1694	900
1	1679	901
1	1663	902
1	1665	903
1	1668	904
1	1677	905
1	1691	906
1	1712	907
1	1736	908
1	1760	909
1	1782	910
1	1812	911
1	1833	912
1	1857	913
1	1881	914
1	1908	915
1	1923	916
1	1924	917
1	1922	918
1	1908	919
1	1888	920
1	1871	921
1	1852	922
1	1826	923
1	1815	924
1	1796	925
1	1802	926
1	1798	927
1	1808	928
1	1822	929
1	1840	930
1	1855	931
1	1868	932
1	1878	933
1	1885	934
1	1883	935
1	1878	936
1	1868	937
1	1855	938
1	1841	939
1	1834	940
1	1826	941
1	1829	942
1	1829	943
1	1829	944
1	1824	945
1	1819	946
1	1819	947
1	1830	948
1	1843	949
1	1856	950
1	1862	951
1	1869	952
1	1869	953
1	1860	954
1	1847	955
1	1843	956
1	1832	957
1	1827	958
1	1825	959
1	1946	1000
1	1944	1001
1	1947	1002
1	1945	1003
1	1939	1004
1	1934	1005
1	1924	1006
1	1914	1007
1	1912	1008
1	1913	1009
1	1921	1010
1	1943	1011
1	1958	1012
1	1974	1013
1	1981	1014
1	1983	1015
1	1975	1016
1	1968	1017
1	1953	1018
1	1944	1019
1	1823	960
1	1823	961
1	1817	962
1	1818	963
1	1822	964
1	1827	965
1	1843	966
1	1859	967
1	1877	968
1	1895	969
1	1899	970
1	1908	971
1	1914	972
1	1922	973
1	1930	974
1	1940	975
1	1948	976
1	1952	977
1	1960	978
1	1965	979
1	1967	980
1	1970	981
1	1957	982
1	1938	983
1	1917	984
1	1897	985
1	1886	986
1	1880	987
1	1870	988
1	1868	989
1	1868	990
1	1878	991
1	1891	992
1	1908	993
1	1921	994
1	1922	995
1	1932	996
1	1934	997
1	1939	998
1	1944	999
1	1927	1020
1	1919	1021
1	1899	1022
1	1884	1023
1	1868	1024
1	1852	1025
1	1836	1026
1	1821	1027
1	1823	1028
1	1821	1029
1	1827	1030
1	1832	1031
1	1832	1032
1	1832	1033
1	1837	1034
1	1841	1035
1	1843	1036
1	1831	1037
1	1820	1038
1	1814	1039
1	1751	1060
1	1724	1061
1	1708	1062
1	1694	1063
1	1683	1064
1	1670	1065
1	1662	1066
1	1657	1067
1	1660	1068
1	1664	1069
1	1682	1070
1	1706	1071
1	1724	1072
1	1738	1073
1	1743	1074
1	1742	1075
1	1737	1076
1	1725	1077
1	1712	1078
1	1698	1079
1	1803	1040
1	1802	1041
1	1800	1042
1	1796	1043
1	1791	1044
1	1788	1045
1	1787	1046
1	1789	1047
1	1791	1048
1	1801	1049
1	1812	1050
1	1817	1051
1	1818	1052
1	1827	1053
1	1832	1054
1	1838	1055
1	1841	1056
1	1837	1057
1	1817	1058
1	1783	1059
1	1646	1100
1	1640	1101
1	1641	1102
1	1652	1103
1	1674	1104
1	1710	1105
1	1744	1106
1	1780	1107
1	1815	1108
1	1831	1109
1	1826	1110
1	1798	1111
1	1764	1112
1	1736	1113
1	1714	1114
1	1708	1115
1	1712	1116
1	1712	1117
1	1716	1118
1	1723	1119
1	1682	1080
1	1670	1081
1	1664	1082
1	1665	1083
1	1659	1084
1	1657	1085
1	1660	1086
1	1664	1087
1	1670	1088
1	1681	1089
1	1687	1090
1	1699	1091
1	1709	1092
1	1714	1093
1	1715	1094
1	1711	1095
1	1701	1096
1	1683	1097
1	1670	1098
1	1659	1099
1	1729	1120
1	1729	1121
1	1717	1122
1	1705	1123
1	1687	1124
1	1675	1125
1	1664	1126
1	1657	1127
1	1652	1128
1	1657	1129
1	1665	1130
1	1682	1131
1	1700	1132
1	1715	1133
1	1729	1134
1	1740	1135
1	1751	1136
1	1751	1137
1	1741	1138
1	1729	1139
1	1711	1140
1	1687	1141
1	1660	1142
1	1636	1143
1	1618	1144
1	1608	1145
1	1611	1146
1	1620	1147
1	1634	1148
1	1657	1149
1	1689	1150
1	1719	1151
1	1751	1152
1	1775	1153
1	1791	1154
1	1799	1155
1	1811	1156
1	1817	1157
1	1818	1158
1	1820	1159
1	1811	1160
1	1787	1161
1	1765	1162
1	1744	1163
1	1733	1164
1	1723	1165
1	1719	1166
1	1718	1167
1	1723	1168
1	1731	1169
1	1740	1170
1	1746	1171
1	1740	1172
1	1737	1173
1	1734	1174
1	1726	1175
1	1730	1176
1	1723	1177
1	1716	1178
1	1712	1179
1	1773	1200
1	1786	1201
1	1791	1202
1	1811	1203
1	1817	1204
1	1815	1205
1	1811	1206
1	1788	1207
1	1764	1208
1	1744	1209
1	1726	1210
1	1711	1211
1	1697	1212
1	1686	1213
1	1677	1214
1	1675	1215
1	1682	1216
1	1690	1217
1	1710	1218
1	1734	1219
1	1713	1180
1	1718	1181
1	1726	1182
1	1737	1183
1	1746	1184
1	1757	1185
1	1764	1186
1	1766	1187
1	1767	1188
1	1765	1189
1	1754	1190
1	1749	1191
1	1738	1192
1	1733	1193
1	1733	1194
1	1737	1195
1	1742	1196
1	1750	1197
1	1756	1198
1	1764	1199
1	1755	1220
1	1770	1221
1	1776	1222
1	1769	1223
1	1773	1224
1	1759	1225
1	1756	1226
1	1749	1227
1	1751	1228
1	1762	1229
1	1777	1230
1	1796	1231
1	1815	1232
1	1826	1233
1	1832	1234
1	1838	1235
1	1832	1236
1	1828	1237
1	1823	1238
1	1827	1239
1	1835	1240
1	1854	1241
1	1867	1242
1	1873	1243
1	1869	1244
1	1854	1245
1	1830	1246
1	1799	1247
1	1785	1248
1	1773	1249
1	1764	1250
1	1757	1251
1	1751	1252
1	1739	1253
1	1733	1254
1	1726	1255
1	1721	1256
1	1721	1257
1	1728	1258
1	1738	1259
1	1764	1280
1	1764	1281
1	1764	1282
1	1773	1283
1	1785	1284
1	1796	1285
1	1814	1286
1	1825	1287
1	1836	1288
1	1852	1289
1	1868	1290
1	1883	1291
1	1891	1292
1	1895	1293
1	1895	1294
1	1890	1295
1	1887	1296
1	1877	1297
1	1866	1298
1	1848	1299
1	1754	1260
1	1776	1261
1	1796	1262
1	1831	1263
1	1853	1264
1	1864	1265
1	1872	1266
1	1876	1267
1	1882	1268
1	1886	1269
1	1891	1270
1	1895	1271
1	1891	1272
1	1880	1273
1	1873	1274
1	1858	1275
1	1839	1276
1	1812	1277
1	1787	1278
1	1775	1279
1	1831	1300
1	1813	1301
1	1791	1302
1	1776	1303
1	1770	1304
1	1777	1305
1	1791	1306
1	1803	1307
1	1827	1308
1	1854	1309
1	1875	1310
1	1901	1311
1	1913	1312
1	1914	1313
1	1911	1314
1	1897	1315
1	1878	1316
1	1855	1317
1	1824	1318
1	1790	1319
1	1756	1320
1	1736	1321
1	1709	1322
1	1692	1323
1	1686	1324
1	1682	1325
1	1672	1326
1	1671	1327
1	1668	1328
1	1672	1329
1	1686	1330
1	1716	1331
1	1746	1332
1	1778	1333
1	1808	1334
1	1827	1335
1	1836	1336
1	1821	1337
1	1803	1338
1	1780	1339
1	1760	1340
1	1741	1341
1	1737	1342
1	1734	1343
1	1737	1344
1	1744	1345
1	1757	1346
1	1773	1347
1	1790	1348
1	1801	1349
1	1816	1350
1	1817	1351
1	1812	1352
1	1812	1353
1	1817	1354
1	1821	1355
1	1826	1356
1	1831	1357
1	1822	1358
1	1816	1359
1	1798	1360
1	1785	1361
1	1766	1362
1	1752	1363
1	1746	1364
1	1743	1365
1	1749	1366
1	1751	1367
1	1762	1368
1	1786	1369
1	1816	1370
1	1859	1371
1	1900	1372
1	1947	1373
1	1985	1374
1	2019	1375
1	2047	1376
1	2066	1377
1	2079	1378
1	2102	1379
1	2128	1380
1	2157	1381
1	2179	1382
1	2207	1383
1	2236	1384
1	2266	1385
1	2305	1386
1	2338	1387
1	2367	1388
1	2397	1389
1	2430	1390
1	2451	1391
1	2467	1392
1	2467	1393
1	2451	1394
1	2422	1395
1	2382	1396
1	2326	1397
1	2263	1398
1	2186	1399
1	2107	1400
1	2027	1401
1	1944	1402
1	1854	1403
1	1765	1404
1	1688	1405
1	1632	1406
1	1582	1407
1	1551	1408
1	1530	1409
1	1525	1410
1	1521	1411
1	1529	1412
1	1547	1413
1	1573	1414
1	1602	1415
1	1640	1416
1	1674	1417
1	1706	1418
1	1725	1419
1	1737	1420
1	1741	1421
1	1740	1422
1	1743	1423
1	1749	1424
1	1756	1425
1	1769	1426
1	1785	1427
1	1796	1428
1	1809	1429
1	1818	1430
1	1828	1431
1	1843	1432
1	1847	1433
1	1854	1434
1	1854	1435
1	1850	1436
1	1842	1437
1	1839	1438
1	1835	1439
1	1831	1440
1	1817	1441
1	1802	1442
1	1796	1443
1	1798	1444
1	1800	1445
1	1809	1446
1	1817	1447
1	1824	1448
1	1841	1449
1	1850	1450
1	1857	1451
1	1860	1452
1	1860	1453
1	1856	1454
1	1854	1455
1	1854	1456
1	1854	1457
1	1865	1458
1	1872	1459
1	1965	1480
1	1962	1481
1	1948	1482
1	1922	1483
1	1900	1484
1	1874	1485
1	1856	1486
1	1832	1487
1	1821	1488
1	1823	1489
1	1832	1490
1	1857	1491
1	1873	1492
1	1893	1493
1	1904	1494
1	1909	1495
1	1916	1496
1	1917	1497
1	1909	1498
1	1895	1499
1	1885	1500
1	1872	1501
1	1855	1502
1	1842	1503
1	1827	1504
1	1818	1505
1	1817	1506
1	1817	1507
1	1817	1508
1	1820	1509
1	1834	1510
1	1856	1511
1	1878	1512
1	1898	1513
1	1917	1514
1	1937	1515
1	1949	1516
1	1953	1517
1	1959	1518
1	1961	1519
1	1877	1460
1	1880	1461
1	1875	1462
1	1867	1463
1	1850	1464
1	1835	1465
1	1826	1466
1	1813	1467
1	1792	1468
1	1787	1469
1	1787	1470
1	1791	1471
1	1783	1472
1	1789	1473
1	1803	1474
1	1839	1475
1	1869	1476
1	1907	1477
1	1933	1478
1	1953	1479
1	1961	1520
1	1961	1521
1	1949	1522
1	1930	1523
1	1922	1524
1	1899	1525
1	1894	1526
1	1878	1527
1	1870	1528
1	1863	1529
1	1854	1530
1	1846	1531
1	1843	1532
1	1843	1533
1	1853	1534
1	1870	1535
1	1894	1536
1	1914	1537
1	1932	1538
1	1949	1539
1	1963	1540
1	1975	1541
1	1978	1542
1	1979	1543
1	1977	1544
1	1973	1545
1	1970	1546
1	1960	1547
1	1963	1548
1	1972	1549
1	1980	1550
1	1981	1551
1	1982	1552
1	1974	1553
1	1962	1554
1	1948	1555
1	1926	1556
1	1914	1557
1	1896	1558
1	1882	1559
1	1869	1560
1	1869	1561
1	1864	1562
1	1870	1563
1	1883	1564
1	1908	1565
1	1944	1566
1	1971	1567
1	2000	1568
1	2028	1569
1	2053	1570
1	2066	1571
1	2079	1572
1	2083	1573
1	2079	1574
1	2071	1575
1	2070	1576
1	2062	1577
1	2063	1578
1	2063	1579
1	2064	1580
1	2066	1581
1	2053	1582
1	2037	1583
1	2015	1584
1	1999	1585
1	1985	1586
1	1976	1587
1	1976	1588
1	1980	1589
1	1986	1590
1	1989	1591
1	1978	1592
1	1972	1593
1	1969	1594
1	1974	1595
1	1999	1596
1	2018	1597
1	2032	1598
1	2040	1599
1	2042	1600
1	2040	1601
1	2026	1602
1	2012	1603
1	2000	1604
1	1989	1605
1	1978	1606
1	1963	1607
1	1952	1608
1	1949	1609
1	1949	1610
1	1961	1611
1	1969	1612
1	1979	1613
1	1991	1614
1	2003	1615
1	2013	1616
1	2014	1617
1	2009	1618
1	2001	1619
1	1988	1620
1	1974	1621
1	1952	1622
1	1945	1623
1	1936	1624
1	1934	1625
1	1926	1626
1	1921	1627
1	1908	1628
1	1895	1629
1	1895	1630
1	1895	1631
1	1893	1632
1	1890	1633
1	1891	1634
1	1892	1635
1	1899	1636
1	1901	1637
1	1908	1638
1	1908	1639
1	1905	1640
1	1906	1641
1	1919	1642
1	1920	1643
1	1908	1644
1	1895	1645
1	1882	1646
1	1868	1647
1	1854	1648
1	1839	1649
1	1820	1650
1	1802	1651
1	1782	1652
1	1765	1653
1	1751	1654
1	1738	1655
1	1738	1656
1	1737	1657
1	1737	1658
1	1740	1659
1	1744	1660
1	1751	1661
1	1755	1662
1	1755	1663
1	1751	1664
1	1750	1665
1	1746	1666
1	1739	1667
1	1739	1668
1	1748	1669
1	1751	1670
1	1760	1671
1	1764	1672
1	1767	1673
1	1764	1674
1	1754	1675
1	1737	1676
1	1712	1677
1	1690	1678
1	1667	1679
1	1742	1700
1	1724	1701
1	1697	1702
1	1664	1703
1	1638	1704
1	1616	1705
1	1607	1706
1	1606	1707
1	1621	1708
1	1646	1709
1	1672	1710
1	1697	1711
1	1712	1712
1	1729	1713
1	1739	1714
1	1746	1715
1	1751	1716
1	1748	1717
1	1742	1718
1	1731	1719
1	1648	1680
1	1634	1681
1	1614	1682
1	1607	1683
1	1606	1684
1	1607	1685
1	1625	1686
1	1636	1687
1	1656	1688
1	1676	1689
1	1700	1690
1	1720	1691
1	1738	1692
1	1755	1693
1	1772	1694
1	1787	1695
1	1791	1696
1	1787	1697
1	1774	1698
1	1760	1699
1	1713	1720
1	1697	1721
1	1675	1722
1	1661	1723
1	1647	1724
1	1636	1725
1	1633	1726
1	1626	1727
1	1624	1728
1	1629	1729
1	1637	1730
1	1647	1731
1	1654	1732
1	1661	1733
1	1672	1734
1	1687	1735
1	1711	1736
1	1720	1737
1	1726	1738
1	1718	1739
1	1705	1740
1	1686	1741
1	1665	1742
1	1648	1743
1	1633	1744
1	1623	1745
1	1624	1746
1	1634	1747
1	1639	1748
1	1639	1749
1	1638	1750
1	1634	1751
1	1634	1752
1	1631	1753
1	1630	1754
1	1637	1755
1	1651	1756
1	1661	1757
1	1679	1758
1	1688	1759
1	1697	1760
1	1710	1761
1	1716	1762
1	1728	1763
1	1738	1764
1	1741	1765
1	1738	1766
1	1737	1767
1	1732	1768
1	1721	1769
1	1705	1770
1	1687	1771
1	1665	1772
1	1647	1773
1	1626	1774
1	1605	1775
1	1594	1776
1	1585	1777
1	1579	1778
1	1580	1779
1	1589	1780
1	1607	1781
1	1626	1782
1	1648	1783
1	1668	1784
1	1686	1785
1	1693	1786
1	1694	1787
1	1699	1788
1	1698	1789
1	1698	1790
1	1697	1791
1	1686	1792
1	1677	1793
1	1660	1794
1	1646	1795
1	1636	1796
1	1633	1797
1	1628	1798
1	1622	1799
1	1621	1800
1	1620	1801
1	1610	1802
1	1609	1803
1	1609	1804
1	1611	1805
1	1618	1806
1	1611	1807
1	1607	1808
1	1607	1809
1	1610	1810
1	1613	1811
1	1611	1812
1	1616	1813
1	1626	1814
1	1634	1815
1	1646	1816
1	1659	1817
1	1675	1818
1	1686	1819
1	1646	1840
1	1677	1841
1	1692	1842
1	1702	1843
1	1711	1844
1	1713	1845
1	1712	1846
1	1703	1847
1	1694	1848
1	1687	1849
1	1679	1850
1	1669	1851
1	1660	1852
1	1641	1853
1	1623	1854
1	1607	1855
1	1592	1856
1	1583	1857
1	1584	1858
1	1586	1859
1	1702	1820
1	1713	1821
1	1721	1822
1	1714	1823
1	1716	1824
1	1700	1825
1	1692	1826
1	1669	1827
1	1656	1828
1	1634	1829
1	1603	1830
1	1568	1831
1	1539	1832
1	1513	1833
1	1498	1834
1	1499	1835
1	1516	1836
1	1546	1837
1	1581	1838
1	1611	1839
1	1525	1880
1	1519	1881
1	1518	1882
1	1524	1883
1	1530	1884
1	1542	1885
1	1551	1886
1	1557	1887
1	1566	1888
1	1577	1889
1	1590	1890
1	1607	1891
1	1628	1892
1	1647	1893
1	1664	1894
1	1674	1895
1	1685	1896
1	1679	1897
1	1666	1898
1	1649	1899
1	1592	1860
1	1602	1861
1	1607	1862
1	1616	1863
1	1623	1864
1	1634	1865
1	1648	1866
1	1658	1867
1	1669	1868
1	1685	1869
1	1697	1870
1	1709	1871
1	1711	1872
1	1702	1873
1	1686	1874
1	1660	1875
1	1629	1876
1	1593	1877
1	1561	1878
1	1538	1879
1	1625	1900
1	1596	1901
1	1568	1902
1	1543	1903
1	1526	1904
1	1517	1905
1	1514	1906
1	1506	1907
1	1509	1908
1	1518	1909
1	1530	1910
1	1548	1911
1	1550	1912
1	1545	1913
1	1539	1914
1	1536	1915
1	1543	1916
1	1551	1917
1	1555	1918
1	1553	1919
1	1542	1920
1	1529	1921
1	1527	1922
1	1528	1923
1	1529	1924
1	1530	1925
1	1526	1926
1	1528	1927
1	1529	1928
1	1534	1929
1	1540	1930
1	1534	1931
1	1529	1932
1	1517	1933
1	1503	1934
1	1490	1935
1	1480	1936
1	1476	1937
1	1484	1938
1	1495	1939
1	1505	1940
1	1516	1941
1	1529	1942
1	1536	1943
1	1539	1944
1	1546	1945
1	1556	1946
1	1572	1947
1	1587	1948
1	1597	1949
1	1602	1950
1	1593	1951
1	1572	1952
1	1557	1953
1	1550	1954
1	1553	1955
1	1562	1956
1	1582	1957
1	1606	1958
1	1634	1959
1	1665	1960
1	1701	1961
1	1734	1962
1	1772	1963
1	1817	1964
1	1856	1965
1	1893	1966
1	1921	1967
1	1952	1968
1	1986	1969
1	2021	1970
1	2064	1971
1	2099	1972
1	2131	1973
1	2156	1974
1	2172	1975
1	2183	1976
1	2174	1977
1	2156	1978
1	2124	1979
1	2088	1980
1	2043	1981
1	1981	1982
1	1914	1983
1	1841	1984
1	1751	1985
1	1669	1986
1	1585	1987
1	1512	1988
1	1449	1989
1	1400	1990
1	1359	1991
1	1330	1992
1	1305	1993
1	1288	1994
1	1278	1995
1	1279	1996
1	1280	1997
1	1283	1998
1	1284	1999
1	1291	2000
1	1302	2001
1	1310	2002
1	1325	2003
1	1346	2004
1	1372	2005
1	1398	2006
1	1424	2007
1	1453	2008
1	1489	2009
1	1525	2010
1	1555	2011
1	1574	2012
1	1587	2013
1	1594	2014
1	1595	2015
1	1585	2016
1	1560	2017
1	1531	2018
1	1505	2019
1	1476	2020
1	1453	2021
1	1450	2022
1	1458	2023
1	1472	2024
1	1481	2025
1	1490	2026
1	1495	2027
1	1503	2028
1	1508	2029
1	1518	2030
1	1529	2031
1	1536	2032
1	1549	2033
1	1558	2034
1	1557	2035
1	1577	2036
1	1574	2037
1	1557	2038
1	1540	2039
1	1527	2040
1	1518	2041
1	1511	2042
1	1508	2043
1	1516	2044
1	1521	2045
1	1535	2046
1	1558	2047
1	1580	2048
1	1593	2049
1	1606	2050
1	1610	2051
1	1611	2052
1	1606	2053
1	1595	2054
1	1589	2055
1	1585	2056
1	1580	2057
1	1575	2058
1	1572	2059
1	1562	2060
1	1555	2061
1	1544	2062
1	1537	2063
1	1533	2064
1	1533	2065
1	1534	2066
1	1538	2067
1	1543	2068
1	1553	2069
1	1566	2070
1	1581	2071
1	1588	2072
1	1597	2073
1	1605	2074
1	1611	2075
1	1628	2076
1	1622	2077
1	1612	2078
1	1596	2079
1	1582	2080
1	1567	2081
1	1559	2082
1	1553	2083
1	1546	2084
1	1542	2085
1	1541	2086
1	1542	2087
1	1557	2088
1	1581	2089
1	1608	2090
1	1645	2091
1	1671	2092
1	1686	2093
1	1697	2094
1	1699	2095
1	1688	2096
1	1671	2097
1	1648	2098
1	1625	2099
1	1605	2100
1	1589	2101
1	1580	2102
1	1583	2103
1	1598	2104
1	1611	2105
1	1633	2106
1	1642	2107
1	1651	2108
1	1664	2109
1	1681	2110
1	1697	2111
1	1712	2112
1	1724	2113
1	1727	2114
1	1724	2115
1	1712	2116
1	1691	2117
1	1669	2118
1	1647	2119
1	1629	2120
1	1621	2121
1	1609	2122
1	1599	2123
1	1605	2124
1	1602	2125
1	1611	2126
1	1616	2127
1	1632	2128
1	1647	2129
1	1665	2130
1	1687	2131
1	1713	2132
1	1738	2133
1	1759	2134
1	1767	2135
1	1769	2136
1	1764	2137
1	1749	2138
1	1728	2139
1	1705	2140
1	1686	2141
1	1662	2142
1	1644	2143
1	1634	2144
1	1623	2145
1	1619	2146
1	1610	2147
1	1615	2148
1	1625	2149
1	1638	2150
1	1659	2151
1	1677	2152
1	1685	2153
1	1688	2154
1	1688	2155
1	1686	2156
1	1677	2157
1	1672	2158
1	1674	2159
1	1685	2160
1	1701	2161
1	1719	2162
1	1742	2163
1	1760	2164
1	1770	2165
1	1790	2166
1	1796	2167
1	1801	2168
1	1802	2169
1	1800	2170
1	1799	2171
1	1793	2172
1	1790	2173
1	1784	2174
1	1781	2175
1	1778	2176
1	1773	2177
1	1777	2178
1	1782	2179
1	1786	2180
1	1789	2181
1	1783	2182
1	1782	2183
1	1787	2184
1	1799	2185
1	1819	2186
1	1841	2187
1	1846	2188
1	1839	2189
1	1827	2190
1	1817	2191
1	1796	2192
1	1783	2193
1	1764	2194
1	1747	2195
1	1727	2196
1	1709	2197
1	1687	2198
1	1674	2199
1	1665	2200
1	1662	2201
1	1662	2202
1	1658	2203
1	1647	2204
1	1634	2205
1	1620	2206
1	1607	2207
1	1610	2208
1	1623	2209
1	1644	2210
1	1673	2211
1	1697	2212
1	1712	2213
1	1722	2214
1	1727	2215
1	1725	2216
1	1715	2217
1	1707	2218
1	1695	2219
1	1680	2220
1	1662	2221
1	1656	2222
1	1651	2223
1	1644	2224
1	1639	2225
1	1636	2226
1	1634	2227
1	1631	2228
1	1618	2229
1	1607	2230
1	1590	2231
1	1577	2232
1	1561	2233
1	1554	2234
1	1544	2235
1	1541	2236
1	1529	2237
1	1520	2238
1	1508	2239
1	1498	2240
1	1487	2241
1	1481	2242
1	1476	2243
1	1473	2244
1	1476	2245
1	1490	2246
1	1514	2247
1	1544	2248
1	1574	2249
1	1599	2250
1	1616	2251
1	1618	2252
1	1620	2253
1	1612	2254
1	1599	2255
1	1579	2256
1	1555	2257
1	1522	2258
1	1490	2259
1	1456	2260
1	1431	2261
1	1405	2262
1	1379	2263
1	1361	2264
1	1350	2265
1	1346	2266
1	1347	2267
1	1358	2268
1	1372	2269
1	1384	2270
1	1404	2271
1	1419	2272
1	1431	2273
1	1441	2274
1	1458	2275
1	1477	2276
1	1504	2277
1	1529	2278
1	1544	2279
1	1555	2280
1	1559	2281
1	1554	2282
1	1548	2283
1	1539	2284
1	1530	2285
1	1529	2286
1	1521	2287
1	1512	2288
1	1503	2289
1	1493	2290
1	1481	2291
1	1470	2292
1	1459	2293
1	1451	2294
1	1452	2295
1	1456	2296
1	1462	2297
1	1476	2298
1	1478	2299
1	1468	2300
1	1454	2301
1	1440	2302
1	1434	2303
1	1435	2304
1	1443	2305
1	1456	2306
1	1469	2307
1	1476	2308
1	1479	2309
1	1485	2310
1	1488	2311
1	1481	2312
1	1485	2313
1	1489	2314
1	1489	2315
1	1488	2316
1	1476	2317
1	1475	2318
1	1475	2319
1	1482	2320
1	1492	2321
1	1505	2322
1	1520	2323
1	1529	2324
1	1529	2325
1	1521	2326
1	1507	2327
1	1493	2328
1	1481	2329
1	1477	2330
1	1481	2331
1	1495	2332
1	1499	2333
1	1505	2334
1	1511	2335
1	1523	2336
1	1529	2337
1	1540	2338
1	1542	2339
1	1535	2340
1	1522	2341
1	1500	2342
1	1476	2343
1	1453	2344
1	1437	2345
1	1426	2346
1	1435	2347
1	1443	2348
1	1459	2349
1	1476	2350
1	1492	2351
1	1503	2352
1	1515	2353
1	1528	2354
1	1540	2355
1	1553	2356
1	1554	2357
1	1549	2358
1	1539	2359
1	1524	2360
1	1505	2361
1	1479	2362
1	1458	2363
1	1443	2364
1	1431	2365
1	1423	2366
1	1416	2367
1	1419	2368
1	1426	2369
1	1438	2370
1	1450	2371
1	1461	2372
1	1476	2373
1	1497	2374
1	1509	2375
1	1526	2376
1	1528	2377
1	1525	2378
1	1515	2379
1	1454	2400
1	1453	2401
1	1450	2402
1	1450	2403
1	1449	2404
1	1443	2405
1	1450	2406
1	1465	2407
1	1490	2408
1	1513	2409
1	1530	2410
1	1548	2411
1	1560	2412
1	1567	2413
1	1573	2414
1	1575	2415
1	1575	2416
1	1564	2417
1	1564	2418
1	1559	2419
1	1510	2400
1	1507	2401
1	1507	2402
1	1508	2403
1	1514	2404
1	1521	2405
1	1528	2406
1	1526	2407
1	1521	2408
1	1512	2409
1	1500	2410
1	1499	2411
1	1501	2412
1	1503	2413
1	1505	2414
1	1503	2415
1	1494	2416
1	1482	2417
1	1472	2418
1	1461	2419
1	1556	2420
1	1554	2421
1	1543	2422
1	1526	2423
1	1514	2424
1	1494	2425
1	1490	2426
1	1482	2427
1	1484	2428
1	1486	2429
1	1491	2430
1	1499	2431
1	1503	2432
1	1503	2433
1	1503	2434
1	1503	2435
1	1499	2436
1	1503	2437
1	1504	2438
1	1514	2439
1	1518	2440
1	1515	2441
1	1517	2442
1	1518	2443
1	1521	2444
1	1518	2445
1	1517	2446
1	1510	2447
1	1506	2448
1	1501	2449
1	1492	2450
1	1488	2451
1	1490	2452
1	1490	2453
1	1494	2454
1	1497	2455
1	1500	2456
1	1503	2457
1	1507	2458
1	1518	2459
1	1530	2460
1	1539	2461
1	1537	2462
1	1541	2463
1	1542	2464
1	1540	2465
1	1536	2466
1	1538	2467
1	1530	2468
1	1519	2469
1	1503	2470
1	1494	2471
1	1485	2472
1	1482	2473
1	1489	2474
1	1502	2475
1	1511	2476
1	1517	2477
1	1525	2478
1	1532	2479
1	1542	2480
1	1556	2481
1	1567	2482
1	1571	2483
1	1580	2484
1	1582	2485
1	1592	2486
1	1595	2487
1	1602	2488
1	1607	2489
1	1607	2490
1	1606	2491
1	1593	2492
1	1579	2493
1	1558	2494
1	1541	2495
1	1530	2496
1	1524	2497
1	1521	2498
1	1529	2499
1	1542	2500
1	1559	2501
1	1582	2502
1	1598	2503
1	1606	2504
1	1594	2505
1	1579	2506
1	1546	2507
1	1520	2508
1	1501	2509
1	1484	2510
1	1478	2511
1	1476	2512
1	1475	2513
1	1476	2514
1	1481	2515
1	1489	2516
1	1495	2517
1	1495	2518
1	1494	2519
1	1490	2520
1	1485	2521
1	1472	2522
1	1458	2523
1	1445	2524
1	1432	2525
1	1420	2526
1	1413	2527
1	1409	2528
1	1414	2529
1	1426	2530
1	1440	2531
1	1456	2532
1	1477	2533
1	1495	2534
1	1515	2535
1	1529	2536
1	1534	2537
1	1531	2538
1	1529	2539
1	1494	2560
1	1490	2561
1	1486	2562
1	1487	2563
1	1490	2564
1	1490	2565
1	1489	2566
1	1484	2567
1	1489	2568
1	1503	2569
1	1529	2570
1	1561	2571
1	1594	2572
1	1627	2573
1	1659	2574
1	1690	2575
1	1729	2576
1	1767	2577
1	1802	2578
1	1835	2579
1	1526	2540
1	1525	2541
1	1530	2542
1	1529	2543
1	1529	2544
1	1525	2545
1	1513	2546
1	1503	2547
1	1503	2548
1	1503	2549
1	1503	2550
1	1508	2551
1	1506	2552
1	1508	2553
1	1512	2554
1	1507	2555
1	1503	2556
1	1502	2557
1	1499	2558
1	1500	2559
1	1764	2600
1	1686	2601
1	1613	2602
1	1541	2603
1	1471	2604
1	1407	2605
1	1346	2606
1	1294	2607
1	1251	2608
1	1227	2609
1	1222	2610
1	1238	2611
1	1258	2612
1	1292	2613
1	1319	2614
1	1341	2615
1	1372	2616
1	1400	2617
1	1424	2618
1	1443	2619
1	1859	2580
1	1882	2581
1	1903	2582
1	1919	2583
1	1932	2584
1	1947	2585
1	1965	2586
1	1975	2587
1	1986	2588
1	1995	2589
1	2004	2590
1	2014	2591
1	2026	2592
1	2037	2593
1	2043	2594
1	2036	2595
1	2013	2596
1	1964	2597
1	1909	2598
1	1842	2599
1	1557	2640
1	1548	2641
1	1535	2642
1	1530	2643
1	1533	2644
1	1529	2645
1	1521	2646
1	1520	2647
1	1527	2648
1	1543	2649
1	1568	2650
1	1595	2651
1	1617	2652
1	1631	2653
1	1632	2654
1	1623	2655
1	1607	2656
1	1581	2657
1	1556	2658
1	1542	2659
1	1459	2620
1	1467	2621
1	1476	2622
1	1480	2623
1	1481	2624
1	1477	2625
1	1477	2626
1	1485	2627
1	1501	2628
1	1526	2629
1	1544	2630
1	1566	2631
1	1579	2632
1	1584	2633
1	1585	2634
1	1595	2635
1	1594	2636
1	1590	2637
1	1583	2638
1	1574	2639
1	1581	2680
1	1581	2681
1	1581	2682
1	1578	2683
1	1576	2684
1	1570	2685
1	1569	2686
1	1560	2687
1	1560	2688
1	1560	2689
1	1564	2690
1	1575	2691
1	1581	2692
1	1594	2693
1	1605	2694
1	1608	2695
1	1607	2696
1	1603	2697
1	1595	2698
1	1590	2699
1	1531	2660
1	1530	2661
1	1529	2662
1	1529	2663
1	1529	2664
1	1527	2665
1	1528	2666
1	1529	2667
1	1538	2668
1	1549	2669
1	1560	2670
1	1577	2671
1	1582	2672
1	1585	2673
1	1582	2674
1	1581	2675
1	1581	2676
1	1581	2677
1	1582	2678
1	1581	2679
1	1585	2700
1	1584	2701
1	1581	2702
1	1594	2703
1	1615	2704
1	1636	2705
1	1659	2706
1	1682	2707
1	1701	2708
1	1716	2709
1	1730	2710
1	1736	2711
1	1734	2712
1	1727	2713
1	1716	2714
1	1706	2715
1	1688	2716
1	1673	2717
1	1660	2718
1	1657	2719
1	1648	2720
1	1647	2721
1	1641	2722
1	1631	2723
1	1633	2724
1	1625	2725
1	1625	2726
1	1621	2727
1	1629	2728
1	1636	2729
1	1644	2730
1	1647	2731
1	1653	2732
1	1652	2733
1	1647	2734
1	1638	2735
1	1634	2736
1	1631	2737
1	1628	2738
1	1634	2739
1	1643	2740
1	1656	2741
1	1670	2742
1	1683	2743
1	1693	2744
1	1710	2745
1	1723	2746
1	1726	2747
1	1728	2748
1	1733	2749
1	1729	2750
1	1724	2751
1	1712	2752
1	1700	2753
1	1694	2754
1	1685	2755
1	1668	2756
1	1652	2757
1	1643	2758
1	1638	2759
1	1646	2760
1	1659	2761
1	1670	2762
1	1687	2763
1	1703	2764
1	1721	2765
1	1744	2766
1	1773	2767
1	1799	2768
1	1829	2769
1	1853	2770
1	1869	2771
1	1873	2772
1	1869	2773
1	1856	2774
1	1842	2775
1	1818	2776
1	1791	2777
1	1778	2778
1	1772	2779
1	1766	2780
1	1773	2781
1	1773	2782
1	1767	2783
1	1767	2784
1	1764	2785
1	1762	2786
1	1756	2787
1	1755	2788
1	1760	2789
1	1773	2790
1	1791	2791
1	1800	2792
1	1815	2793
1	1816	2794
1	1809	2795
1	1795	2796
1	1790	2797
1	1775	2798
1	1757	2799
1	1742	2800
1	1733	2801
1	1734	2802
1	1738	2803
1	1741	2804
1	1744	2805
1	1751	2806
1	1752	2807
1	1760	2808
1	1764	2809
1	1770	2810
1	1785	2811
1	1791	2812
1	1795	2813
1	1795	2814
1	1791	2815
1	1787	2816
1	1772	2817
1	1752	2818
1	1733	2819
1	1714	2820
1	1695	2821
1	1685	2822
1	1686	2823
1	1698	2824
1	1725	2825
1	1760	2826
1	1791	2827
1	1817	2828
1	1824	2829
1	1826	2830
1	1826	2831
1	1819	2832
1	1809	2833
1	1791	2834
1	1768	2835
1	1751	2836
1	1724	2837
1	1701	2838
1	1686	2839
1	1662	2840
1	1642	2841
1	1625	2842
1	1605	2843
1	1585	2844
1	1576	2845
1	1571	2846
1	1571	2847
1	1569	2848
1	1564	2849
1	1562	2850
1	1570	2851
1	1579	2852
1	1584	2853
1	1589	2854
1	1584	2855
1	1589	2856
1	1583	2857
1	1581	2858
1	1571	2859
1	1565	2860
1	1558	2861
1	1555	2862
1	1557	2863
1	1562	2864
1	1574	2865
1	1593	2866
1	1609	2867
1	1634	2868
1	1647	2869
1	1656	2870
1	1656	2871
1	1642	2872
1	1623	2873
1	1605	2874
1	1592	2875
1	1580	2876
1	1563	2877
1	1548	2878
1	1524	2879
1	1501	2880
1	1477	2881
1	1459	2882
1	1440	2883
1	1426	2884
1	1418	2885
1	1417	2886
1	1417	2887
1	1424	2888
1	1445	2889
1	1466	2890
1	1490	2891
1	1512	2892
1	1540	2893
1	1562	2894
1	1584	2895
1	1597	2896
1	1598	2897
1	1593	2898
1	1573	2899
1	1553	2900
1	1535	2901
1	1529	2902
1	1516	2903
1	1503	2904
1	1500	2905
1	1494	2906
1	1490	2907
1	1481	2908
1	1473	2909
1	1463	2910
1	1462	2911
1	1464	2912
1	1480	2913
1	1499	2914
1	1513	2915
1	1530	2916
1	1534	2917
1	1534	2918
1	1530	2919
1	1508	2940
1	1503	2941
1	1494	2942
1	1490	2943
1	1487	2944
1	1477	2945
1	1466	2946
1	1459	2947
1	1449	2948
1	1442	2949
1	1440	2950
1	1443	2951
1	1451	2952
1	1467	2953
1	1479	2954
1	1497	2955
1	1512	2956
1	1515	2957
1	1517	2958
1	1521	2959
1	1529	2920
1	1521	2921
1	1525	2922
1	1529	2923
1	1529	2924
1	1527	2925
1	1528	2926
1	1530	2927
1	1533	2928
1	1540	2929
1	1544	2930
1	1547	2931
1	1543	2932
1	1531	2933
1	1518	2934
1	1508	2935
1	1501	2936
1	1502	2937
1	1505	2938
1	1511	2939
1	1525	2960
1	1530	2961
1	1528	2962
1	1520	2963
1	1514	2964
1	1508	2965
1	1505	2966
1	1504	2967
1	1507	2968
1	1515	2969
1	1525	2970
1	1529	2971
1	1529	2972
1	1531	2973
1	1539	2974
1	1542	2975
1	1544	2976
1	1540	2977
1	1530	2978
1	1517	2979
1	1492	3000
1	1500	3001
1	1500	3002
1	1501	3003
1	1503	3004
1	1503	3005
1	1514	3006
1	1529	3007
1	1538	3008
1	1548	3009
1	1558	3010
1	1562	3011
1	1555	3012
1	1543	3013
1	1534	3014
1	1524	3015
1	1511	3016
1	1494	3017
1	1481	3018
1	1472	3019
1	1517	2980
1	1517	2981
1	1519	2982
1	1519	2983
1	1512	2984
1	1497	2985
1	1477	2986
1	1455	2987
1	1445	2988
1	1437	2989
1	1435	2990
1	1440	2991
1	1449	2992
1	1454	2993
1	1462	2994
1	1467	2995
1	1475	2996
1	1476	2997
1	1481	2998
1	1488	2999
1	1464	3020
1	1468	3021
1	1476	3022
1	1481	3023
1	1504	3024
1	1518	3025
1	1530	3026
1	1533	3027
1	1532	3028
1	1533	3029
1	1542	3030
1	1546	3031
1	1553	3032
1	1556	3033
1	1560	3034
1	1557	3035
1	1544	3036
1	1520	3037
1	1492	3038
1	1466	3039
1	1458	3040
1	1449	3041
1	1440	3042
1	1433	3043
1	1424	3044
1	1420	3045
1	1415	3046
1	1409	3047
1	1409	3048
1	1414	3049
1	1424	3050
1	1437	3051
1	1450	3052
1	1463	3053
1	1476	3054
1	1490	3055
1	1500	3056
1	1508	3057
1	1516	3058
1	1518	3059
1	1521	3060
1	1521	3061
1	1512	3062
1	1503	3063
1	1493	3064
1	1483	3065
1	1484	3066
1	1485	3067
1	1489	3068
1	1491	3069
1	1499	3070
1	1506	3071
1	1520	3072
1	1530	3073
1	1538	3074
1	1541	3075
1	1542	3076
1	1538	3077
1	1540	3078
1	1542	3079
1	1548	3080
1	1555	3081
1	1553	3082
1	1554	3083
1	1555	3084
1	1554	3085
1	1544	3086
1	1530	3087
1	1521	3088
1	1510	3089
1	1503	3090
1	1492	3091
1	1487	3092
1	1486	3093
1	1489	3094
1	1490	3095
1	1490	3096
1	1499	3097
1	1503	3098
1	1513	3099
1	1520	3100
1	1519	3101
1	1508	3102
1	1487	3103
1	1460	3104
1	1436	3105
1	1420	3106
1	1401	3107
1	1402	3108
1	1400	3109
1	1402	3110
1	1405	3111
1	1399	3112
1	1399	3113
1	1406	3114
1	1420	3115
1	1442	3116
1	1479	3117
1	1518	3118
1	1548	3119
1	1374	3160
1	1379	3161
1	1394	3162
1	1410	3163
1	1433	3164
1	1461	3165
1	1501	3166
1	1538	3167
1	1576	3168
1	1613	3169
1	1661	3170
1	1712	3171
1	1752	3172
1	1787	3173
1	1823	3174
1	1857	3175
1	1893	3176
1	1924	3177
1	1957	3178
1	1980	3179
1	1566	3120
1	1570	3121
1	1570	3122
1	1559	3123
1	1539	3124
1	1510	3125
1	1481	3126
1	1451	3127
1	1424	3128
1	1399	3129
1	1398	3130
1	1398	3131
1	1399	3132
1	1407	3133
1	1416	3134
1	1423	3135
1	1427	3136
1	1427	3137
1	1430	3138
1	1430	3139
1	1432	3140
1	1440	3141
1	1459	3142
1	1476	3143
1	1493	3144
1	1502	3145
1	1503	3146
1	1503	3147
1	1498	3148
1	1497	3149
1	1503	3150
1	1508	3151
1	1499	3152
1	1484	3153
1	1464	3154
1	1448	3155
1	1431	3156
1	1414	3157
1	1398	3158
1	1382	3159
1	2007	3180
1	2034	3181
1	2052	3182
1	2065	3183
1	2071	3184
1	2079	3185
1	2079	3186
1	2064	3187
1	2040	3188
1	2011	3189
1	1967	3190
1	1917	3191
1	1863	3192
1	1800	3193
1	1736	3194
1	1662	3195
1	1593	3196
1	1510	3197
1	1437	3198
1	1360	3199
1	1295	3200
1	1246	3201
1	1215	3202
1	1193	3203
1	1186	3204
1	1188	3205
1	1197	3206
1	1206	3207
1	1209	3208
1	1210	3209
1	1207	3210
1	1207	3211
1	1215	3212
1	1241	3213
1	1286	3214
1	1336	3215
1	1384	3216
1	1424	3217
1	1446	3218
1	1466	3219
1	1485	3220
1	1494	3221
1	1503	3222
1	1511	3223
1	1513	3224
1	1515	3225
1	1513	3226
1	1508	3227
1	1503	3228
1	1502	3229
1	1501	3230
1	1494	3231
1	1481	3232
1	1474	3233
1	1463	3234
1	1462	3235
1	1451	3236
1	1442	3237
1	1430	3238
1	1418	3239
1	1399	3240
1	1384	3241
1	1380	3242
1	1395	3243
1	1412	3244
1	1436	3245
1	1456	3246
1	1485	3247
1	1503	3248
1	1517	3249
1	1525	3250
1	1528	3251
1	1535	3252
1	1544	3253
1	1559	3254
1	1579	3255
1	1594	3256
1	1607	3257
1	1613	3258
1	1610	3259
1	1601	3260
1	1584	3261
1	1563	3262
1	1541	3263
1	1512	3264
1	1478	3265
1	1450	3266
1	1430	3267
1	1413	3268
1	1407	3269
1	1405	3270
1	1411	3271
1	1421	3272
1	1437	3273
1	1463	3274
1	1490	3275
1	1523	3276
1	1553	3277
1	1580	3278
1	1602	3279
1	1537	3300
1	1529	3301
1	1515	3302
1	1507	3303
1	1503	3304
1	1507	3305
1	1523	3306
1	1536	3307
1	1553	3308
1	1572	3309
1	1600	3310
1	1630	3311
1	1647	3312
1	1656	3313
1	1654	3314
1	1647	3315
1	1643	3316
1	1631	3317
1	1623	3318
1	1621	3319
1	1618	3280
1	1629	3281
1	1633	3282
1	1622	3283
1	1607	3284
1	1585	3285
1	1562	3286
1	1536	3287
1	1525	3288
1	1513	3289
1	1508	3290
1	1513	3291
1	1518	3292
1	1527	3293
1	1537	3294
1	1546	3295
1	1550	3296
1	1554	3297
1	1553	3298
1	1545	3299
1	1620	3320
1	1625	3321
1	1628	3322
1	1626	3323
1	1634	3324
1	1634	3325
1	1630	3326
1	1629	3327
1	1632	3328
1	1633	3329
1	1633	3330
1	1631	3331
1	1626	3332
1	1625	3333
1	1620	3334
1	1617	3335
1	1623	3336
1	1629	3337
1	1625	3338
1	1623	3339
1	1686	3360
1	1692	3361
1	1698	3362
1	1708	3363
1	1714	3364
1	1714	3365
1	1713	3366
1	1704	3367
1	1697	3368
1	1699	3369
1	1700	3370
1	1700	3371
1	1694	3372
1	1692	3373
1	1688	3374
1	1690	3375
1	1694	3376
1	1695	3377
1	1698	3378
1	1695	3379
1	1618	3340
1	1605	3341
1	1593	3342
1	1580	3343
1	1561	3344
1	1550	3345
1	1544	3346
1	1544	3347
1	1560	3348
1	1581	3349
1	1604	3350
1	1628	3351
1	1657	3352
1	1679	3353
1	1695	3354
1	1702	3355
1	1706	3356
1	1698	3357
1	1688	3358
1	1683	3359
1	1692	3380
1	1697	3381
1	1700	3382
1	1701	3383
1	1706	3384
1	1711	3385
1	1716	3386
1	1721	3387
1	1725	3388
1	1724	3389
1	1725	3390
1	1723	3391
1	1718	3392
1	1715	3393
1	1714	3394
1	1714	3395
1	1714	3396
1	1724	3397
1	1724	3398
1	1724	3399
1	1720	3400
1	1712	3401
1	1700	3402
1	1691	3403
1	1688	3404
1	1697	3405
1	1706	3406
1	1711	3407
1	1713	3408
1	1715	3409
1	1719	3410
1	1730	3411
1	1733	3412
1	1729	3413
1	1725	3414
1	1719	3415
1	1712	3416
1	1705	3417
1	1699	3418
1	1692	3419
1	1555	3440
1	1538	3441
1	1527	3442
1	1512	3443
1	1508	3444
1	1506	3445
1	1508	3446
1	1517	3447
1	1529	3448
1	1538	3449
1	1539	3450
1	1530	3451
1	1515	3452
1	1500	3453
1	1481	3454
1	1471	3455
1	1467	3456
1	1464	3457
1	1467	3458
1	1475	3459
1	1685	3420
1	1672	3421
1	1662	3422
1	1661	3423
1	1660	3424
1	1662	3425
1	1673	3426
1	1685	3427
1	1688	3428
1	1697	3429
1	1690	3430
1	1684	3431
1	1665	3432
1	1656	3433
1	1646	3434
1	1638	3435
1	1628	3436
1	1607	3437
1	1587	3438
1	1572	3439
1	1481	3460
1	1488	3461
1	1499	3462
1	1503	3463
1	1512	3464
1	1519	3465
1	1521	3466
1	1515	3467
1	1513	3468
1	1512	3469
1	1523	3470
1	1540	3471
1	1551	3472
1	1555	3473
1	1553	3474
1	1542	3475
1	1529	3476
1	1517	3477
1	1507	3478
1	1499	3479
1	1485	3480
1	1476	3481
1	1467	3482
1	1463	3483
1	1451	3484
1	1439	3485
1	1436	3486
1	1424	3487
1	1419	3488
1	1424	3489
1	1437	3490
1	1454	3491
1	1476	3492
1	1500	3493
1	1523	3494
1	1535	3495
1	1536	3496
1	1528	3497
1	1511	3498
1	1494	3499
1	1476	3500
1	1462	3501
1	1449	3502
1	1427	3503
1	1409	3504
1	1395	3505
1	1392	3506
1	1400	3507
1	1422	3508
1	1445	3509
1	1468	3510
1	1490	3511
1	1508	3512
1	1527	3513
1	1541	3514
1	1552	3515
1	1557	3516
1	1560	3517
1	1558	3518
1	1557	3519
1	1556	3520
1	1552	3521
1	1551	3522
1	1550	3523
1	1543	3524
1	1531	3525
1	1521	3526
1	1510	3527
1	1503	3528
1	1494	3529
1	1485	3530
1	1477	3531
1	1472	3532
1	1468	3533
1	1471	3534
1	1485	3535
1	1495	3536
1	1508	3537
1	1521	3538
1	1527	3539
1	1518	3540
1	1503	3541
1	1476	3542
1	1461	3543
1	1450	3544
1	1445	3545
1	1449	3546
1	1449	3547
1	1451	3548
1	1463	3549
1	1476	3550
1	1492	3551
1	1511	3552
1	1526	3553
1	1539	3554
1	1551	3555
1	1555	3556
1	1545	3557
1	1531	3558
1	1512	3559
1	1486	3560
1	1467	3561
1	1446	3562
1	1429	3563
1	1423	3564
1	1424	3565
1	1430	3566
1	1448	3567
1	1467	3568
1	1491	3569
1	1519	3570
1	1550	3571
1	1569	3572
1	1586	3573
1	1595	3574
1	1594	3575
1	1592	3576
1	1578	3577
1	1561	3578
1	1546	3579
1	1529	3580
1	1526	3581
1	1525	3582
1	1530	3583
1	1539	3584
1	1535	3585
1	1530	3586
1	1518	3587
1	1506	3588
1	1490	3589
1	1481	3590
1	1483	3591
1	1482	3592
1	1486	3593
1	1498	3594
1	1512	3595
1	1529	3596
1	1550	3597
1	1564	3598
1	1571	3599
1	1571	3600
1	1559	3601
1	1535	3602
1	1518	3603
1	1503	3604
1	1500	3605
1	1499	3606
1	1503	3607
1	1503	3608
1	1516	3609
1	1526	3610
1	1531	3611
1	1537	3612
1	1541	3613
1	1545	3614
1	1553	3615
1	1554	3616
1	1545	3617
1	1539	3618
1	1530	3619
1	1526	3620
1	1527	3621
1	1521	3622
1	1511	3623
1	1506	3624
1	1499	3625
1	1491	3626
1	1489	3627
1	1485	3628
1	1489	3629
1	1494	3630
1	1503	3631
1	1508	3632
1	1511	3633
1	1517	3634
1	1520	3635
1	1517	3636
1	1510	3637
1	1500	3638
1	1490	3639
1	1490	3640
1	1485	3641
1	1485	3642
1	1490	3643
1	1500	3644
1	1514	3645
1	1525	3646
1	1526	3647
1	1528	3648
1	1530	3649
1	1539	3650
1	1553	3651
1	1561	3652
1	1575	3653
1	1593	3654
1	1607	3655
1	1622	3656
1	1629	3657
1	1621	3658
1	1607	3659
1	1520	3680
1	1542	3681
1	1556	3682
1	1574	3683
1	1589	3684
1	1602	3685
1	1607	3686
1	1608	3687
1	1611	3688
1	1617	3689
1	1620	3690
1	1625	3691
1	1624	3692
1	1626	3693
1	1629	3694
1	1625	3695
1	1619	3696
1	1614	3697
1	1602	3698
1	1584	3699
1	1593	3660
1	1582	3661
1	1566	3662
1	1555	3663
1	1551	3664
1	1546	3665
1	1547	3666
1	1541	3667
1	1530	3668
1	1533	3669
1	1535	3670
1	1526	3671
1	1517	3672
1	1505	3673
1	1499	3674
1	1495	3675
1	1499	3676
1	1495	3677
1	1502	3678
1	1505	3679
1	1573	3700
1	1564	3701
1	1557	3702
1	1555	3703
1	1553	3704
1	1553	3705
1	1555	3706
1	1553	3707
1	1553	3708
1	1553	3709
1	1554	3710
1	1566	3711
1	1575	3712
1	1582	3713
1	1587	3714
1	1589	3715
1	1581	3716
1	1577	3717
1	1571	3718
1	1562	3719
1	1549	3720
1	1521	3721
1	1500	3722
1	1477	3723
1	1459	3724
1	1441	3725
1	1431	3726
1	1432	3727
1	1430	3728
1	1428	3729
1	1440	3730
1	1450	3731
1	1466	3732
1	1484	3733
1	1503	3734
1	1523	3735
1	1539	3736
1	1548	3737
1	1557	3738
1	1566	3739
1	1571	3740
1	1574	3741
1	1561	3742
1	1542	3743
1	1517	3744
1	1491	3745
1	1467	3746
1	1455	3747
1	1452	3748
1	1463	3749
1	1476	3750
1	1490	3751
1	1502	3752
1	1515	3753
1	1535	3754
1	1557	3755
1	1581	3756
1	1592	3757
1	1595	3758
1	1596	3759
1	1593	3760
1	1584	3761
1	1580	3762
1	1566	3763
1	1551	3764
1	1538	3765
1	1524	3766
1	1506	3767
1	1499	3768
1	1494	3769
1	1496	3770
1	1508	3771
1	1521	3772
1	1533	3773
1	1548	3774
1	1563	3775
1	1583	3776
1	1607	3777
1	1638	3778
1	1660	3779
1	1674	3780
1	1685	3781
1	1692	3782
1	1703	3783
1	1714	3784
1	1731	3785
1	1760	3786
1	1785	3787
1	1814	3788
1	1849	3789
1	1893	3790
1	1946	3791
1	2003	3792
1	2066	3793
1	2129	3794
1	2188	3795
1	2250	3796
1	2284	3797
1	2299	3798
1	2294	3799
1	2269	3800
1	2230	3801
1	2167	3802
1	2097	3803
1	2016	3804
1	1934	3805
1	1845	3806
1	1751	3807
1	1662	3808
1	1580	3809
1	1501	3810
1	1430	3811
1	1359	3812
1	1309	3813
1	1276	3814
1	1259	3815
1	1265	3816
1	1269	3817
1	1283	3818
1	1299	3819
1	1320	3820
1	1337	3821
1	1358	3822
1	1379	3823
1	1402	3824
1	1424	3825
1	1440	3826
1	1454	3827
1	1473	3828
1	1490	3829
1	1503	3830
1	1512	3831
1	1515	3832
1	1514	3833
1	1515	3834
1	1526	3835
1	1530	3836
1	1535	3837
1	1543	3838
1	1549	3839
1	1555	3840
1	1563	3841
1	1567	3842
1	1580	3843
1	1585	3844
1	1589	3845
1	1598	3846
1	1599	3847
1	1600	3848
1	1605	3849
1	1611	3850
1	1620	3851
1	1625	3852
1	1629	3853
1	1629	3854
1	1623	3855
1	1611	3856
1	1598	3857
1	1581	3858
1	1571	3859
1	1765	3900
1	1789	3901
1	1795	3902
1	1798	3903
1	1795	3904
1	1791	3905
1	1789	3906
1	1791	3907
1	1791	3908
1	1790	3909
1	1782	3910
1	1770	3911
1	1757	3912
1	1741	3913
1	1731	3914
1	1718	3915
1	1705	3916
1	1686	3917
1	1676	3918
1	1679	3919
1	1555	3860
1	1539	3861
1	1517	3862
1	1503	3863
1	1508	3864
1	1529	3865
1	1549	3866
1	1567	3867
1	1582	3868
1	1598	3869
1	1611	3870
1	1629	3871
1	1635	3872
1	1644	3873
1	1651	3874
1	1656	3875
1	1664	3876
1	1665	3877
1	1668	3878
1	1662	3879
1	1647	3880
1	1636	3881
1	1611	3882
1	1587	3883
1	1570	3884
1	1561	3885
1	1565	3886
1	1572	3887
1	1585	3888
1	1602	3889
1	1611	3890
1	1629	3891
1	1634	3892
1	1642	3893
1	1647	3894
1	1660	3895
1	1675	3896
1	1697	3897
1	1718	3898
1	1743	3899
1	1687	3920
1	1708	3921
1	1725	3922
1	1742	3923
1	1765	3924
1	1790	3925
1	1813	3926
1	1830	3927
1	1843	3928
1	1856	3929
1	1867	3930
1	1867	3931
1	1862	3932
1	1856	3933
1	1844	3934
1	1835	3935
1	1824	3936
1	1815	3937
1	1809	3938
1	1808	3939
1	1817	3940
1	1813	3941
1	1800	3942
1	1782	3943
1	1765	3944
1	1756	3945
1	1755	3946
1	1757	3947
1	1764	3948
1	1772	3949
1	1773	3950
1	1780	3951
1	1782	3952
1	1787	3953
1	1785	3954
1	1787	3955
1	1788	3956
1	1782	3957
1	1777	3958
1	1769	3959
1	1744	3980
1	1751	3981
1	1752	3982
1	1763	3983
1	1782	3984
1	1814	3985
1	1838	3986
1	1857	3987
1	1871	3988
1	1879	3989
1	1885	3990
1	1886	3991
1	1881	3992
1	1874	3993
1	1869	3994
1	1863	3995
1	1860	3996
1	1849	3997
1	1836	3998
1	1825	3999
1	1767	3960
1	1769	3961
1	1768	3962
1	1777	3963
1	1780	3964
1	1785	3965
1	1791	3966
1	1795	3967
1	1791	3968
1	1788	3969
1	1778	3970
1	1776	3971
1	1773	3972
1	1773	3973
1	1776	3974
1	1776	3975
1	1769	3976
1	1760	3977
1	1752	3978
1	1751	3979
1	1817	4000
1	1813	4001
1	1809	4002
1	1803	4003
1	1802	4004
1	1807	4005
1	1812	4006
1	1801	4006
1	1803	4008
1	1815	4009
1	1831	4010
1	1857	4011
1	1881	4012
1	1905	4013
1	1922	4014
1	1932	4014
1	1931	4016
1	1911	4017
1	1894	4018
1	1870	4019
1	1768	4040
1	1749	4041
1	1730	4042
1	1714	4043
1	1708	4044
1	1705	4045
1	1710	4046
1	1715	4046
1	1726	4048
1	1741	4049
1	1759	4050
1	1767	4051
1	1763	4052
1	1755	4053
1	1750	4054
1	1738	4054
1	1733	4056
1	1724	4057
1	1718	4058
1	1713	4059
1	1848	4020
1	1829	4021
1	1821	4022
1	1818	4022
1	1822	4024
1	1836	4025
1	1851	4026
1	1869	4027
1	1887	4028
1	1901	4029
1	1922	4030
1	1929	4030
1	1932	4032
1	1926	4033
1	1922	4034
1	1914	4035
1	1897	4036
1	1869	4037
1	1841	4038
1	1803	4038
1	1680	4080
1	1679	4081
1	1670	4082
1	1669	4083
1	1665	4084
1	1671	4085
1	1682	4086
1	1683	4086
1	1676	4088
1	1661	4089
1	1646	4090
1	1625	4091
1	1604	4092
1	1581	4093
1	1566	4094
1	1555	4094
1	1555	4096
1	1553	4097
1	1556	4098
1	1566	4099
1	1712	4060
1	1710	4061
1	1703	4062
1	1695	4062
1	1683	4064
1	1675	4065
1	1677	4066
1	1683	4067
1	1699	4068
1	1715	4069
1	1728	4070
1	1735	4070
1	1729	4072
1	1716	4073
1	1708	4074
1	1695	4075
1	1687	4076
1	1681	4077
1	1679	4078
1	1678	4078
1	1577	4100
1	1588	4101
1	1600	4102
1	1612	4103
1	1624	4104
1	1634	4105
1	1641	4106
1	1642	4107
1	1644	4108
1	1647	4109
1	1648	4110
1	1650	4111
1	1651	4112
1	1654	4113
1	1655	4114
1	1656	4115
1	1659	4116
1	1660	4117
1	1662	4118
1	1664	4119
1	1660	4120
1	1643	4121
1	1630	4122
1	1618	4123
1	1610	4124
1	1607	4125
1	1612	4126
1	1618	4127
1	1623	4128
1	1632	4129
1	1636	4130
1	1646	4131
1	1652	4132
1	1657	4133
1	1659	4134
1	1671	4135
1	1679	4136
1	1682	4137
1	1677	4138
1	1670	4139
1	1667	4140
1	1665	4141
1	1662	4142
1	1663	4143
1	1665	4144
1	1668	4145
1	1683	4146
1	1688	4147
1	1688	4148
1	1675	4149
1	1658	4150
1	1638	4151
1	1623	4152
1	1607	4153
1	1595	4154
1	1581	4155
1	1569	4156
1	1556	4157
1	1557	4158
1	1570	4159
1	1584	4160
1	1607	4161
1	1619	4162
1	1631	4163
1	1643	4164
1	1656	4165
1	1661	4166
1	1670	4167
1	1672	4168
1	1672	4169
1	1674	4170
1	1671	4171
1	1660	4172
1	1654	4173
1	1643	4174
1	1631	4175
1	1634	4176
1	1634	4177
1	1634	4178
1	1623	4179
1	1616	4180
1	1611	4181
1	1619	4182
1	1638	4183
1	1665	4184
1	1686	4185
1	1706	4186
1	1713	4187
1	1723	4188
1	1730	4189
1	1728	4190
1	1733	4191
1	1725	4192
1	1711	4193
1	1695	4194
1	1682	4195
1	1668	4196
1	1659	4197
1	1652	4198
1	1647	4199
1	1647	4200
1	1649	4201
1	1647	4202
1	1647	4203
1	1647	4204
1	1647	4205
1	1648	4206
1	1643	4207
1	1634	4208
1	1634	4209
1	1638	4210
1	1649	4211
1	1656	4212
1	1660	4213
1	1664	4214
1	1673	4215
1	1686	4216
1	1705	4217
1	1731	4218
1	1755	4219
1	1626	4240
1	1633	4241
1	1634	4242
1	1634	4243
1	1634	4244
1	1638	4245
1	1647	4246
1	1651	4247
1	1661	4248
1	1683	4249
1	1698	4250
1	1719	4251
1	1728	4252
1	1737	4253
1	1741	4254
1	1751	4255
1	1753	4256
1	1759	4257
1	1763	4258
1	1764	4259
1	1782	4220
1	1803	4221
1	1811	4222
1	1791	4223
1	1782	4224
1	1765	4225
1	1755	4226
1	1749	4227
1	1736	4228
1	1724	4229
1	1712	4230
1	1698	4231
1	1686	4232
1	1669	4233
1	1652	4234
1	1635	4235
1	1624	4236
1	1615	4237
1	1611	4238
1	1615	4239
1	1764	4260
1	1757	4261
1	1744	4262
1	1738	4263
1	1733	4264
1	1723	4265
1	1729	4266
1	1729	4267
1	1734	4268
1	1733	4269
1	1733	4270
1	1725	4271
1	1718	4272
1	1711	4273
1	1707	4274
1	1702	4275
1	1701	4276
1	1701	4277
1	1705	4278
1	1713	4279
1	1719	4280
1	1732	4281
1	1738	4282
1	1746	4283
1	1755	4284
1	1765	4285
1	1780	4286
1	1793	4287
1	1809	4288
1	1817	4289
1	1826	4290
1	1844	4291
1	1862	4292
1	1876	4293
1	1884	4294
1	1883	4295
1	1881	4296
1	1863	4297
1	1843	4298
1	1811	4299
1	1773	4300
1	1744	4301
1	1724	4302
1	1712	4303
1	1711	4304
1	1712	4305
1	1716	4306
1	1715	4307
1	1714	4308
1	1713	4309
1	1716	4310
1	1734	4311
1	1751	4312
1	1773	4313
1	1792	4314
1	1814	4315
1	1817	4316
1	1816	4317
1	1801	4318
1	1791	4319
1	1782	4320
1	1765	4321
1	1760	4322
1	1752	4323
1	1747	4324
1	1742	4325
1	1729	4326
1	1717	4327
1	1701	4328
1	1688	4329
1	1683	4330
1	1677	4331
1	1679	4332
1	1683	4333
1	1687	4334
1	1692	4335
1	1700	4336
1	1698	4337
1	1695	4338
1	1695	4339
1	1692	4340
1	1699	4341
1	1702	4342
1	1707	4343
1	1712	4344
1	1718	4345
1	1726	4346
1	1730	4347
1	1735	4348
1	1738	4349
1	1744	4350
1	1752	4351
1	1752	4352
1	1759	4353
1	1767	4354
1	1778	4355
1	1793	4356
1	1801	4357
1	1817	4358
1	1823	4359
1	1827	4360
1	1822	4361
1	1815	4362
1	1791	4363
1	1776	4364
1	1762	4365
1	1747	4366
1	1729	4367
1	1715	4368
1	1710	4369
1	1705	4370
1	1712	4371
1	1716	4372
1	1723	4373
1	1731	4374
1	1740	4375
1	1751	4376
1	1755	4377
1	1756	4378
1	1751	4379
1	1742	4380
1	1734	4381
1	1722	4382
1	1712	4383
1	1712	4384
1	1724	4385
1	1760	4386
1	1809	4387
1	1857	4388
1	1901	4389
1	1940	4390
1	1972	4391
1	1999	4392
1	2017	4393
1	2029	4394
1	2041	4395
1	2055	4396
1	2065	4397
1	2086	4398
1	2117	4399
1	2157	4400
1	2215	4401
1	2276	4402
1	2326	4403
1	2364	4404
1	2389	4405
1	2402	4406
1	2404	4407
1	2394	4408
1	2369	4409
1	2333	4410
1	2286	4411
1	2219	4412
1	2156	4413
1	2089	4414
1	2014	4415
1	1936	4416
1	1856	4417
1	1774	4418
1	1710	4419
1	1656	4420
1	1616	4421
1	1598	4422
1	1592	4423
1	1595	4424
1	1602	4425
1	1608	4426
1	1620	4427
1	1634	4428
1	1641	4429
1	1634	4430
1	1618	4431
1	1598	4432
1	1581	4433
1	1577	4434
1	1581	4435
1	1589	4436
1	1598	4437
1	1607	4438
1	1625	4439
1	1646	4440
1	1670	4441
1	1698	4442
1	1728	4443
1	1752	4444
1	1766	4445
1	1780	4446
1	1787	4447
1	1791	4448
1	1802	4449
1	1816	4450
1	1818	4451
1	1821	4452
1	1823	4453
1	1826	4454
1	1827	4455
1	1823	4456
1	1816	4457
1	1815	4458
1	1819	4459
1	1826	4460
1	1834	4461
1	1834	4462
1	1828	4463
1	1821	4464
1	1818	4465
1	1822	4466
1	1820	4467
1	1817	4468
1	1816	4469
1	1816	4470
1	1815	4471
1	1800	4472
1	1799	4473
1	1801	4474
1	1800	4475
1	1812	4476
1	1815	4477
1	1817	4478
1	1824	4479
1	1831	4480
1	1830	4481
1	1831	4482
1	1830	4483
1	1841	4484
1	1845	4485
1	1856	4486
1	1869	4487
1	1886	4488
1	1896	4489
1	1899	4490
1	1901	4491
1	1894	4492
1	1881	4493
1	1870	4494
1	1862	4495
1	1852	4496
1	1841	4497
1	1832	4498
1	1829	4499
1	1819	4500
1	1813	4501
1	1793	4502
1	1787	4503
1	1791	4504
1	1792	4505
1	1816	4506
1	1823	4507
1	1827	4508
1	1829	4509
1	1834	4510
1	1838	4511
1	1838	4512
1	1842	4513
1	1843	4514
1	1840	4515
1	1837	4516
1	1828	4517
1	1831	4518
1	1835	4519
1	1843	4520
1	1856	4521
1	1868	4522
1	1871	4523
1	1887	4524
1	1894	4525
1	1900	4526
1	1907	4527
1	1908	4528
1	1919	4529
1	1931	4530
1	1940	4531
1	1940	4532
1	1936	4533
1	1932	4534
1	1929	4535
1	1922	4536
1	1908	4537
1	1885	4538
1	1858	4539
1	1843	4540
1	1823	4541
1	1811	4542
1	1808	4543
1	1817	4544
1	1838	4545
1	1857	4546
1	1871	4547
1	1891	4548
1	1908	4549
1	1922	4550
1	1940	4551
1	1945	4552
1	1935	4553
1	1923	4554
1	1922	4555
1	1924	4556
1	1934	4557
1	1948	4558
1	1958	4559
1	1970	4560
1	1977	4561
1	1975	4562
1	1974	4563
1	1973	4564
1	1961	4565
1	1953	4566
1	1944	4567
1	1932	4568
1	1922	4569
1	1911	4570
1	1908	4571
1	1908	4572
1	1914	4573
1	1930	4574
1	1953	4575
1	1978	4576
1	2000	4577
1	2021	4578
1	2035	4579
1	2039	4580
1	2041	4581
1	2029	4582
1	2015	4583
1	2000	4584
1	1982	4585
1	1968	4586
1	1948	4587
1	1932	4588
1	1922	4589
1	1920	4590
1	1922	4591
1	1922	4592
1	1931	4593
1	1940	4594
1	1948	4595
1	1963	4596
1	1969	4597
1	1968	4598
1	1962	4599
1	1963	4600
1	1974	4601
1	1990	4602
1	2011	4603
1	2029	4604
1	2047	4605
1	2058	4606
1	2058	4607
1	2057	4608
1	2053	4609
1	2043	4610
1	2037	4611
1	2027	4612
1	2016	4613
1	2000	4614
1	1985	4615
1	1974	4616
1	1970	4617
1	1971	4618
1	1973	4619
1	1998	4640
1	1974	4641
1	1952	4642
1	1933	4643
1	1922	4644
1	1914	4645
1	1910	4646
1	1913	4647
1	1916	4648
1	1919	4649
1	1908	4650
1	1895	4651
1	1871	4652
1	1856	4653
1	1842	4654
1	1829	4655
1	1823	4656
1	1817	4657
1	1808	4658
1	1800	4659
1	1976	4620
1	1977	4621
1	1985	4622
1	1992	4623
1	1995	4624
1	2000	4625
1	2001	4626
1	2003	4627
1	2011	4628
1	2019	4629
1	2015	4630
1	2018	4631
1	2014	4632
1	2018	4633
1	2019	4634
1	2025	4635
1	2030	4636
1	2029	4637
1	2027	4638
1	2018	4639
1	1803	4660
1	1816	4661
1	1823	4662
1	1830	4663
1	1841	4664
1	1845	4665
1	1855	4666
1	1855	4667
1	1857	4668
1	1857	4669
1	1851	4670
1	1845	4671
1	1830	4672
1	1817	4673
1	1801	4674
1	1791	4675
1	1778	4676
1	1772	4677
1	1764	4678
1	1756	4679
1	1737	4700
1	1741	4701
1	1734	4702
1	1725	4703
1	1720	4704
1	1724	4705
1	1729	4706
1	1738	4707
1	1751	4708
1	1764	4709
1	1779	4710
1	1798	4711
1	1809	4712
1	1817	4713
1	1823	4714
1	1818	4715
1	1818	4716
1	1799	4717
1	1770	4718
1	1742	4719
1	1751	4680
1	1748	4681
1	1740	4682
1	1739	4683
1	1744	4684
1	1751	4685
1	1765	4686
1	1773	4687
1	1778	4688
1	1782	4689
1	1786	4690
1	1787	4691
1	1783	4692
1	1770	4693
1	1761	4694
1	1750	4695
1	1741	4696
1	1733	4697
1	1733	4698
1	1735	4699
1	1677	4740
1	1681	4741
1	1681	4742
1	1686	4743
1	1701	4744
1	1717	4745
1	1738	4746
1	1756	4747
1	1769	4748
1	1787	4749
1	1816	4750
1	1827	4751
1	1836	4752
1	1836	4753
1	1827	4754
1	1817	4755
1	1803	4756
1	1782	4757
1	1764	4758
1	1749	4759
1	1717	4720
1	1698	4721
1	1690	4722
1	1691	4723
1	1698	4724
1	1710	4725
1	1724	4726
1	1739	4727
1	1753	4728
1	1769	4729
1	1773	4730
1	1778	4731
1	1764	4732
1	1746	4733
1	1724	4734
1	1705	4735
1	1692	4736
1	1683	4737
1	1677	4738
1	1674	4739
1	1731	4760
1	1721	4761
1	1713	4762
1	1711	4763
1	1712	4764
1	1711	4765
1	1711	4766
1	1712	4767
1	1715	4768
1	1724	4769
1	1738	4770
1	1750	4771
1	1744	4772
1	1740	4773
1	1734	4774
1	1717	4775
1	1711	4776
1	1692	4777
1	1680	4778
1	1667	4779
1	1662	4780
1	1672	4781
1	1683	4782
1	1699	4783
1	1721	4784
1	1751	4785
1	1776	4786
1	1801	4787
1	1826	4788
1	1841	4789
1	1845	4790
1	1850	4791
1	1845	4792
1	1841	4793
1	1832	4794
1	1821	4795
1	1810	4796
1	1790	4797
1	1769	4798
1	1751	4799
1	1736	4800
1	1719	4801
1	1703	4802
1	1697	4803
1	1697	4804
1	1697	4805
1	1702	4806
1	1700	4807
1	1703	4808
1	1711	4809
1	1718	4810
1	1728	4811
1	1737	4812
1	1741	4813
1	1751	4814
1	1760	4815
1	1770	4816
1	1769	4817
1	1764	4818
1	1750	4819
1	1734	4820
1	1727	4821
1	1714	4822
1	1705	4823
1	1701	4824
1	1709	4825
1	1708	4826
1	1707	4827
1	1707	4828
1	1712	4829
1	1712	4830
1	1712	4831
1	1712	4832
1	1705	4833
1	1699	4834
1	1686	4835
1	1677	4836
1	1670	4837
1	1660	4838
1	1661	4839
1	1674	4840
1	1684	4841
1	1686	4842
1	1685	4843
1	1686	4844
1	1687	4845
1	1697	4846
1	1698	4847
1	1712	4848
1	1734	4849
1	1756	4850
1	1795	4851
1	1832	4852
1	1858	4853
1	1872	4854
1	1881	4855
1	1881	4856
1	1877	4857
1	1870	4858
1	1855	4859
1	1832	4860
1	1803	4861
1	1769	4862
1	1741	4863
1	1713	4864
1	1693	4865
1	1684	4866
1	1672	4867
1	1670	4868
1	1674	4869
1	1686	4870
1	1694	4871
1	1710	4872
1	1719	4873
1	1734	4874
1	1746	4875
1	1766	4876
1	1778	4877
1	1786	4878
1	1783	4879
1	1776	4880
1	1767	4881
1	1753	4882
1	1737	4883
1	1726	4884
1	1719	4885
1	1715	4886
1	1720	4887
1	1731	4888
1	1740	4889
1	1751	4890
1	1764	4891
1	1773	4892
1	1782	4893
1	1791	4894
1	1791	4895
1	1791	4896
1	1777	4897
1	1752	4898
1	1726	4899
1	1703	4900
1	1688	4901
1	1683	4902
1	1683	4903
1	1686	4904
1	1690	4905
1	1697	4906
1	1708	4907
1	1728	4908
1	1753	4909
1	1782	4910
1	1816	4911
1	1830	4912
1	1832	4913
1	1828	4914
1	1814	4915
1	1791	4916
1	1769	4917
1	1751	4918
1	1736	4919
1	1733	4920
1	1726	4921
1	1724	4922
1	1721	4923
1	1715	4924
1	1711	4925
1	1703	4926
1	1702	4927
1	1703	4928
1	1712	4929
1	1723	4930
1	1729	4931
1	1719	4932
1	1707	4933
1	1690	4934
1	1674	4935
1	1651	4936
1	1633	4937
1	1621	4938
1	1620	4939
1	1624	4940
1	1629	4941
1	1636	4942
1	1644	4943
1	1652	4944
1	1661	4945
1	1674	4946
1	1687	4947
1	1706	4948
1	1721	4949
1	1736	4950
1	1738	4951
1	1733	4952
1	1719	4953
1	1712	4954
1	1703	4955
1	1695	4956
1	1677	4957
1	1661	4958
1	1655	4959
1	1611	4980
1	1605	4981
1	1590	4982
1	1581	4983
1	1577	4984
1	1577	4985
1	1589	4986
1	1598	4987
1	1608	4988
1	1625	4989
1	1645	4990
1	1662	4991
1	1684	4992
1	1706	4993
1	1737	4994
1	1773	4995
1	1816	4996
1	1850	4997
1	1884	4998
1	1918	4999
1	1652	4960
1	1656	4961
1	1659	4962
1	1661	4963
1	1665	4964
1	1676	4965
1	1686	4966
1	1688	4967
1	1694	4968
1	1693	4969
1	1686	4970
1	1682	4971
1	1674	4972
1	1669	4973
1	1662	4974
1	1659	4975
1	1651	4976
1	1646	4977
1	1634	4978
1	1624	4979
1	1944	5000
1	1968	5001
1	1982	5002
1	1998	5003
1	2017	5004
1	2041	5005
1	2071	5006
1	2104	5007
1	2134	5008
1	2165	5009
1	2197	5010
1	2234	5011
1	2260	5012
1	2284	5013
1	2305	5014
1	2314	5015
1	2317	5016
1	2299	5017
1	2263	5018
1	2208	5019
1	2142	5020
1	2078	5021
1	2002	5022
1	1924	5023
1	1844	5024
1	1762	5025
1	1682	5026
1	1612	5027
1	1556	5028
1	1515	5029
1	1482	5030
1	1463	5031
1	1449	5032
1	1437	5033
1	1432	5034
1	1425	5035
1	1427	5036
1	1425	5037
1	1428	5038
1	1436	5039
1	1445	5040
1	1451	5041
1	1458	5042
1	1476	5043
1	1503	5044
1	1530	5045
1	1566	5046
1	1606	5047
1	1639	5048
1	1677	5049
1	1706	5050
1	1718	5051
1	1724	5052
1	1721	5053
1	1716	5054
1	1711	5055
1	1701	5056
1	1683	5057
1	1665	5058
1	1659	5059
1	1656	5060
1	1665	5061
1	1669	5062
1	1671	5063
1	1667	5064
1	1660	5065
1	1656	5066
1	1657	5067
1	1659	5068
1	1664	5069
1	1669	5070
1	1674	5071
1	1682	5072
1	1692	5073
1	1694	5074
1	1683	5075
1	1668	5076
1	1643	5077
1	1622	5078
1	1608	5079
1	1607	5080
1	1607	5081
1	1623	5082
1	1641	5083
1	1660	5084
1	1678	5085
1	1698	5086
1	1712	5087
1	1728	5088
1	1744	5089
1	1762	5090
1	1782	5091
1	1796	5092
1	1803	5093
1	1796	5094
1	1787	5095
1	1770	5096
1	1757	5097
1	1749	5098
1	1744	5099
1	1744	5100
1	1740	5101
1	1736	5102
1	1729	5103
1	1731	5104
1	1724	5105
1	1716	5106
1	1703	5107
1	1690	5108
1	1683	5109
1	1679	5110
1	1674	5111
1	1683	5112
1	1690	5113
1	1696	5114
1	1689	5115
1	1683	5116
1	1668	5117
1	1658	5118
1	1647	5119
1	1634	5120
1	1633	5121
1	1625	5122
1	1616	5123
1	1621	5124
1	1634	5125
1	1647	5126
1	1660	5127
1	1664	5128
1	1674	5129
1	1677	5130
1	1686	5131
1	1702	5132
1	1715	5133
1	1729	5134
1	1737	5135
1	1740	5136
1	1737	5137
1	1728	5138
1	1724	5139
1	1712	5140
1	1701	5141
1	1683	5142
1	1667	5143
1	1652	5144
1	1646	5145
1	1643	5146
1	1639	5147
1	1651	5148
1	1665	5149
1	1686	5150
1	1711	5151
1	1746	5152
1	1773	5153
1	1801	5154
1	1827	5155
1	1843	5156
1	1847	5157
1	1843	5158
1	1835	5159
1	1828	5160
1	1817	5161
1	1791	5162
1	1773	5163
1	1757	5164
1	1738	5165
1	1729	5166
1	1717	5167
1	1711	5168
1	1698	5169
1	1689	5170
1	1686	5171
1	1687	5172
1	1688	5173
1	1693	5174
1	1703	5175
1	1712	5176
1	1719	5177
1	1731	5178
1	1748	5179
1	1827	5200
1	1811	5201
1	1791	5202
1	1779	5203
1	1769	5204
1	1765	5205
1	1765	5206
1	1764	5207
1	1771	5208
1	1782	5209
1	1791	5210
1	1799	5211
1	1818	5212
1	1833	5213
1	1844	5214
1	1843	5215
1	1841	5216
1	1841	5217
1	1838	5218
1	1829	5219
1	1761	5180
1	1782	5181
1	1796	5182
1	1808	5183
1	1809	5184
1	1803	5185
1	1796	5186
1	1791	5187
1	1790	5188
1	1783	5189
1	1786	5190
1	1791	5191
1	1795	5192
1	1809	5193
1	1827	5194
1	1837	5195
1	1847	5196
1	1850	5197
1	1849	5198
1	1843	5199
1	1810	5220
1	1787	5221
1	1782	5222
1	1778	5223
1	1773	5224
1	1770	5225
1	1765	5226
1	1766	5227
1	1772	5228
1	1788	5229
1	1802	5230
1	1820	5231
1	1818	5232
1	1814	5233
1	1800	5234
1	1790	5235
1	1779	5236
1	1763	5237
1	1750	5238
1	1738	5239
1	1733	5240
1	1735	5241
1	1739	5242
1	1746	5243
1	1757	5244
1	1769	5245
1	1782	5246
1	1791	5247
1	1800	5248
1	1809	5249
1	1796	5250
1	1790	5251
1	1777	5252
1	1773	5253
1	1773	5254
1	1765	5255
1	1753	5256
1	1733	5257
1	1697	5258
1	1661	5259
1	1635	5260
1	1620	5261
1	1616	5262
1	1622	5263
1	1633	5264
1	1634	5265
1	1638	5266
1	1635	5267
1	1645	5268
1	1661	5269
1	1683	5270
1	1710	5271
1	1729	5272
1	1746	5273
1	1757	5274
1	1762	5275
1	1748	5276
1	1721	5277
1	1683	5278
1	1647	5279
1	1530	5300
1	1530	5301
1	1526	5302
1	1515	5303
1	1502	5304
1	1485	5305
1	1475	5306
1	1467	5307
1	1461	5308
1	1458	5309
1	1458	5310
1	1461	5311
1	1464	5312
1	1479	5313
1	1503	5314
1	1529	5315
1	1564	5316
1	1595	5317
1	1622	5318
1	1634	5319
1	1616	5280
1	1595	5281
1	1579	5282
1	1571	5283
1	1567	5284
1	1563	5285
1	1569	5286
1	1580	5287
1	1595	5288
1	1613	5289
1	1629	5290
1	1634	5291
1	1634	5292
1	1621	5293
1	1600	5294
1	1574	5295
1	1555	5296
1	1534	5297
1	1529	5298
1	1529	5299
1	1633	5320
1	1608	5321
1	1594	5322
1	1577	5323
1	1557	5324
1	1536	5325
1	1515	5326
1	1494	5327
1	1483	5328
1	1485	5329
1	1490	5330
1	1501	5331
1	1518	5332
1	1534	5333
1	1559	5334
1	1579	5335
1	1597	5336
1	1598	5337
1	1587	5338
1	1568	5339
1	1550	5340
1	1531	5341
1	1512	5342
1	1502	5343
1	1495	5344
1	1492	5345
1	1503	5346
1	1512	5347
1	1524	5348
1	1531	5349
1	1538	5350
1	1541	5351
1	1538	5352
1	1529	5353
1	1521	5354
1	1516	5355
1	1509	5356
1	1497	5357
1	1492	5358
1	1497	5359
1	1495	5360
1	1502	5361
1	1502	5362
1	1503	5363
1	1508	5364
1	1511	5365
1	1513	5366
1	1515	5367
1	1515	5368
1	1517	5369
1	1523	5370
1	1529	5371
1	1530	5372
1	1543	5373
1	1555	5374
1	1563	5375
1	1570	5376
1	1564	5377
1	1557	5378
1	1554	5379
1	1553	5380
1	1548	5381
1	1538	5382
1	1525	5383
1	1515	5384
1	1515	5385
1	1524	5386
1	1523	5387
1	1520	5388
1	1516	5389
1	1512	5390
1	1512	5391
1	1505	5392
1	1505	5393
1	1508	5394
1	1521	5395
1	1525	5396
1	1520	5397
1	1513	5398
1	1516	5399
1	1521	5400
1	1528	5401
1	1530	5402
1	1543	5403
1	1559	5404
1	1576	5405
1	1596	5406
1	1615	5407
1	1633	5408
1	1651	5409
1	1665	5410
1	1686	5411
1	1696	5412
1	1686	5413
1	1660	5414
1	1621	5415
1	1582	5416
1	1543	5417
1	1510	5418
1	1484	5419
1	1464	5420
1	1454	5421
1	1450	5422
1	1451	5423
1	1463	5424
1	1476	5425
1	1476	5426
1	1474	5427
1	1463	5428
1	1457	5429
1	1450	5430
1	1450	5431
1	1453	5432
1	1461	5433
1	1466	5434
1	1472	5435
1	1482	5436
1	1503	5437
1	1517	5438
1	1543	5439
1	1564	5440
1	1581	5441
1	1580	5442
1	1569	5443
1	1555	5444
1	1544	5445
1	1535	5446
1	1520	5447
1	1503	5448
1	1481	5449
1	1463	5450
1	1446	5451
1	1443	5452
1	1440	5453
1	1448	5454
1	1469	5455
1	1508	5456
1	1555	5457
1	1598	5458
1	1628	5459
1	1638	5460
1	1634	5461
1	1607	5462
1	1581	5463
1	1556	5464
1	1540	5465
1	1535	5466
1	1529	5467
1	1529	5468
1	1530	5469
1	1534	5470
1	1538	5471
1	1544	5472
1	1555	5473
1	1572	5474
1	1584	5475
1	1595	5476
1	1599	5477
1	1597	5478
1	1587	5479
1	1575	5480
1	1570	5481
1	1567	5482
1	1566	5483
1	1561	5484
1	1555	5485
1	1553	5486
1	1553	5487
1	1555	5488
1	1555	5489
1	1555	5490
1	1554	5491
1	1539	5492
1	1524	5493
1	1503	5494
1	1487	5495
1	1476	5496
1	1461	5497
1	1454	5498
1	1450	5499
1	1453	5500
1	1462	5501
1	1476	5502
1	1495	5503
1	1517	5504
1	1538	5505
1	1556	5506
1	1564	5507
1	1565	5508
1	1559	5509
1	1554	5510
1	1555	5511
1	1551	5512
1	1544	5513
1	1543	5514
1	1548	5515
1	1557	5516
1	1570	5517
1	1577	5518
1	1581	5519
1	1593	5520
1	1593	5521
1	1595	5522
1	1593	5523
1	1585	5524
1	1580	5525
1	1572	5526
1	1567	5527
1	1559	5528
1	1553	5529
1	1543	5530
1	1539	5531
1	1528	5532
1	1518	5533
1	1511	5534
1	1512	5535
1	1508	5536
1	1503	5537
1	1499	5538
1	1491	5539
1	1482	5540
1	1472	5541
1	1475	5542
1	1476	5543
1	1484	5544
1	1490	5545
1	1494	5546
1	1498	5547
1	1494	5548
1	1492	5549
1	1490	5550
1	1497	5551
1	1503	5552
1	1517	5553
1	1529	5554
1	1539	5555
1	1540	5556
1	1543	5557
1	1533	5558
1	1523	5559
1	1512	5560
1	1500	5561
1	1481	5562
1	1462	5563
1	1442	5564
1	1425	5565
1	1418	5566
1	1414	5567
1	1423	5568
1	1437	5569
1	1461	5570
1	1494	5571
1	1524	5572
1	1549	5573
1	1567	5574
1	1577	5575
1	1580	5576
1	1577	5577
1	1570	5578
1	1561	5579
1	1549	5580
1	1526	5581
1	1490	5582
1	1459	5583
1	1433	5584
1	1412	5585
1	1398	5586
1	1382	5587
1	1374	5588
1	1377	5589
1	1384	5590
1	1403	5591
1	1419	5592
1	1437	5593
1	1452	5594
1	1474	5595
1	1487	5596
1	1492	5597
1	1499	5598
1	1505	5599
1	1516	5600
1	1539	5601
1	1561	5602
1	1587	5603
1	1607	5604
1	1626	5605
1	1645	5606
1	1670	5607
1	1701	5608
1	1734	5609
1	1764	5610
1	1793	5611
1	1821	5612
1	1848	5613
1	1868	5614
1	1887	5615
1	1913	5616
1	1923	5617
1	1935	5618
1	1948	5619
1	1967	5620
1	1993	5621
1	2016	5622
1	2048	5623
1	2070	5624
1	2083	5625
1	2089	5626
1	2081	5627
1	2058	5628
1	2021	5629
1	1974	5630
1	1922	5631
1	1868	5632
1	1800	5633
1	1727	5634
1	1660	5635
1	1592	5636
1	1527	5637
1	1464	5638
1	1424	5639
1	1395	5640
1	1375	5641
1	1370	5642
1	1374	5643
1	1397	5644
1	1415	5645
1	1431	5646
1	1443	5647
1	1440	5648
1	1436	5649
1	1424	5650
1	1413	5651
1	1399	5652
1	1398	5653
1	1400	5654
1	1409	5655
1	1419	5656
1	1425	5657
1	1440	5658
1	1461	5659
1	1592	5680
1	1580	5681
1	1557	5682
1	1532	5683
1	1508	5684
1	1495	5685
1	1490	5686
1	1490	5687
1	1501	5688
1	1503	5689
1	1496	5690
1	1490	5691
1	1479	5692
1	1472	5693
1	1464	5694
1	1459	5695
1	1461	5696
1	1463	5697
1	1462	5698
1	1459	5699
1	1485	5660
1	1514	5661
1	1533	5662
1	1544	5663
1	1549	5664
1	1547	5665
1	1542	5666
1	1538	5667
1	1529	5668
1	1521	5669
1	1521	5670
1	1524	5671
1	1528	5672
1	1533	5673
1	1541	5674
1	1555	5675
1	1580	5676
1	1597	5677
1	1605	5678
1	1600	5679
1	1462	5700
1	1479	5701
1	1506	5702
1	1545	5703
1	1587	5704
1	1621	5705
1	1656	5706
1	1674	5707
1	1682	5708
1	1674	5709
1	1657	5710
1	1634	5711
1	1609	5712
1	1589	5713
1	1571	5714
1	1561	5715
1	1564	5716
1	1571	5717
1	1584	5718
1	1598	5719
1	1602	5720
1	1603	5721
1	1595	5722
1	1582	5723
1	1553	5724
1	1526	5725
1	1490	5726
1	1453	5727
1	1425	5728
1	1411	5729
1	1398	5730
1	1399	5731
1	1398	5732
1	1422	5733
1	1445	5734
1	1476	5735
1	1516	5736
1	1555	5737
1	1591	5738
1	1626	5739
1	1643	5740
1	1647	5741
1	1642	5742
1	1629	5743
1	1612	5744
1	1607	5745
1	1607	5746
1	1607	5747
1	1611	5748
1	1618	5749
1	1623	5750
1	1622	5751
1	1616	5752
1	1600	5753
1	1590	5754
1	1566	5755
1	1544	5756
1	1529	5757
1	1518	5758
1	1517	5759
1	1529	5760
1	1546	5761
1	1564	5762
1	1583	5763
1	1602	5764
1	1618	5765
1	1638	5766
1	1676	5767
1	1718	5768
1	1760	5769
1	1787	5770
1	1787	5771
1	1772	5772
1	1749	5773
1	1721	5774
1	1694	5775
1	1665	5776
1	1634	5777
1	1607	5778
1	1589	5779
1	1573	5780
1	1569	5781
1	1558	5782
1	1552	5783
1	1552	5784
1	1562	5785
1	1580	5786
1	1596	5787
1	1607	5788
1	1616	5789
1	1634	5790
1	1651	5791
1	1660	5792
1	1670	5793
1	1681	5794
1	1692	5795
1	1711	5796
1	1734	5797
1	1746	5798
1	1751	5799
1	1753	5800
1	1751	5801
1	1749	5802
1	1748	5803
1	1749	5804
1	1747	5805
1	1749	5806
1	1743	5807
1	1748	5808
1	1755	5809
1	1763	5810
1	1767	5811
1	1762	5812
1	1746	5813
1	1729	5814
1	1705	5815
1	1686	5816
1	1674	5817
1	1670	5818
1	1667	5819
1	1670	5820
1	1674	5821
1	1679	5822
1	1686	5823
1	1688	5824
1	1686	5825
1	1681	5826
1	1674	5827
1	1674	5828
1	1680	5829
1	1699	5830
1	1716	5831
1	1732	5832
1	1751	5833
1	1764	5834
1	1782	5835
1	1795	5836
1	1796	5837
1	1795	5838
1	1791	5839
1	1778	5840
1	1770	5841
1	1775	5842
1	1770	5843
1	1765	5844
1	1760	5845
1	1752	5846
1	1747	5847
1	1742	5848
1	1729	5849
1	1711	5850
1	1685	5851
1	1656	5852
1	1634	5853
1	1621	5854
1	1612	5855
1	1616	5856
1	1616	5857
1	1613	5858
1	1611	5859
1	1607	5860
1	1608	5861
1	1615	5862
1	1625	5863
1	1633	5864
1	1634	5865
1	1636	5866
1	1635	5867
1	1639	5868
1	1652	5869
1	1677	5870
1	1715	5871
1	1752	5872
1	1783	5873
1	1814	5874
1	1826	5875
1	1812	5876
1	1778	5877
1	1744	5878
1	1718	5879
1	1692	5880
1	1677	5881
1	1670	5882
1	1661	5883
1	1647	5884
1	1633	5885
1	1626	5886
1	1616	5887
1	1607	5888
1	1599	5889
1	1596	5890
1	1595	5891
1	1596	5892
1	1594	5893
1	1584	5894
1	1573	5895
1	1566	5896
1	1560	5897
1	1564	5898
1	1567	5899
1	1572	5900
1	1569	5901
1	1565	5902
1	1556	5903
1	1561	5904
1	1584	5905
1	1616	5906
1	1647	5907
1	1675	5908
1	1690	5909
1	1697	5910
1	1697	5911
1	1687	5912
1	1685	5913
1	1679	5914
1	1661	5915
1	1646	5916
1	1621	5917
1	1602	5918
1	1589	5919
1	1589	5940
1	1602	5941
1	1605	5942
1	1602	5943
1	1607	5944
1	1608	5945
1	1618	5946
1	1634	5947
1	1647	5948
1	1661	5949
1	1672	5950
1	1673	5951
1	1675	5952
1	1675	5953
1	1676	5954
1	1674	5955
1	1675	5956
1	1667	5957
1	1668	5958
1	1675	5959
1	1581	5920
1	1572	5921
1	1571	5922
1	1576	5923
1	1581	5924
1	1586	5925
1	1591	5926
1	1592	5927
1	1592	5928
1	1584	5929
1	1572	5930
1	1551	5931
1	1531	5932
1	1517	5933
1	1505	5934
1	1508	5935
1	1517	5936
1	1529	5937
1	1546	5938
1	1569	5939
1	1685	5960
1	1698	5961
1	1703	5962
1	1705	5963
1	1700	5964
1	1691	5965
1	1677	5966
1	1658	5967
1	1634	5968
1	1613	5969
1	1599	5970
1	1598	5971
1	1598	5972
1	1607	5973
1	1618	5974
1	1625	5975
1	1634	5976
1	1644	5977
1	1655	5978
1	1665	5979
1	1673	5980
1	1682	5981
1	1698	5982
1	1721	5983
1	1747	5984
1	1772	5985
1	1791	5986
1	1801	5987
1	1809	5988
1	1800	5989
1	1791	5990
1	1793	5991
1	1791	5992
1	1788	5993
1	1782	5994
1	1775	5995
1	1763	5996
1	1738	5997
1	1710	5998
1	1686	5999
1	1673	6000
1	1649	6001
1	1634	6002
1	1620	6003
1	1615	6004
1	1616	6005
1	1623	6006
1	1638	6007
1	1657	6008
1	1683	6009
1	1702	6010
1	1720	6011
1	1738	6012
1	1753	6013
1	1773	6014
1	1796	6015
1	1819	6016
1	1827	6017
1	1828	6018
1	1817	6019
1	1791	6020
1	1764	6021
1	1734	6022
1	1691	6023
1	1677	6024
1	1678	6025
1	1684	6026
1	1700	6027
1	1721	6028
1	1733	6029
1	1741	6030
1	1751	6031
1	1760	6032
1	1775	6033
1	1787	6034
1	1792	6035
1	1799	6036
1	1796	6037
1	1790	6038
1	1769	6039
1	1760	6040
1	1743	6041
1	1737	6042
1	1733	6043
1	1729	6044
1	1733	6045
1	1736	6046
1	1739	6047
1	1749	6048
1	1760	6049
1	1773	6050
1	1783	6051
1	1795	6052
1	1800	6053
1	1798	6054
1	1791	6055
1	1775	6056
1	1757	6057
1	1733	6058
1	1705	6059
1	1681	6060
1	1659	6061
1	1654	6062
1	1656	6063
1	1663	6064
1	1679	6065
1	1709	6066
1	1737	6067
1	1768	6068
1	1809	6069
1	1845	6070
1	1877	6071
1	1895	6072
1	1901	6073
1	1907	6074
1	1908	6075
1	1908	6076
1	1909	6077
1	1911	6078
1	1906	6079
1	1891	6080
1	1875	6081
1	1856	6082
1	1835	6083
1	1817	6084
1	1800	6085
1	1791	6086
1	1780	6087
1	1769	6088
1	1764	6089
1	1764	6090
1	1763	6091
1	1769	6092
1	1789	6093
1	1815	6094
1	1834	6095
1	1847	6096
1	1863	6097
1	1868	6098
1	1868	6099
1	1867	6100
1	1864	6101
1	1863	6102
1	1860	6103
1	1859	6104
1	1867	6105
1	1869	6106
1	1877	6107
1	1885	6108
1	1895	6109
1	1900	6110
1	1908	6111
1	1907	6112
1	1898	6113
1	1895	6114
1	1897	6115
1	1901	6116
1	1913	6117
1	1924	6118
1	1940	6119
1	1960	6120
1	1965	6121
1	1965	6122
1	1960	6123
1	1948	6124
1	1926	6125
1	1908	6126
1	1882	6127
1	1860	6128
1	1842	6129
1	1826	6130
1	1811	6131
1	1801	6132
1	1799	6133
1	1791	6134
1	1782	6135
1	1766	6136
1	1763	6137
1	1760	6138
1	1760	6139
1	1765	6140
1	1772	6141
1	1783	6142
1	1791	6143
1	1801	6144
1	1814	6145
1	1821	6146
1	1836	6147
1	1852	6148
1	1873	6149
1	1895	6150
1	1909	6151
1	1921	6152
1	1934	6153
1	1939	6154
1	1939	6155
1	1937	6156
1	1926	6157
1	1910	6158
1	1895	6159
1	1874	6160
1	1858	6161
1	1850	6162
1	1843	6163
1	1843	6164
1	1850	6165
1	1854	6166
1	1859	6167
1	1870	6168
1	1887	6169
1	1908	6170
1	1947	6171
1	1975	6172
1	2000	6173
1	2013	6174
1	2013	6175
1	1998	6176
1	1976	6177
1	1948	6178
1	1917	6179
1	1868	6180
1	1818	6181
1	1770	6182
1	1747	6183
1	1738	6184
1	1743	6185
1	1764	6186
1	1776	6187
1	1775	6188
1	1764	6189
1	1746	6190
1	1738	6191
1	1751	6192
1	1773	6193
1	1816	6194
1	1856	6195
1	1890	6196
1	1906	6197
1	1920	6198
1	1924	6199
1	1932	6200
1	1943	6201
1	1962	6202
1	1974	6203
1	1986	6204
1	1998	6205
1	2013	6206
1	2035	6207
1	2064	6208
1	2095	6209
1	2126	6210
1	2155	6211
1	2179	6212
1	2210	6213
1	2248	6214
1	2275	6215
1	2310	6216
1	2327	6217
1	2342	6218
1	2350	6219
1	2356	6220
1	2349	6221
1	2332	6222
1	2300	6223
1	2262	6224
1	2219	6225
1	2188	6226
1	2173	6227
1	2163	6228
1	2155	6229
1	2135	6230
1	2120	6231
1	2084	6232
1	2052	6233
1	2009	6234
1	1971	6235
1	1929	6236
1	1891	6237
1	1859	6238
1	1840	6239
1	1819	6240
1	1792	6241
1	1783	6242
1	1775	6243
1	1778	6244
1	1788	6245
1	1794	6246
1	1808	6247
1	1811	6248
1	1812	6249
1	1817	6250
1	1819	6251
1	1820	6252
1	1819	6253
1	1814	6254
1	1803	6255
1	1790	6256
1	1781	6257
1	1773	6258
1	1776	6259
1	1791	6260
1	1827	6261
1	1852	6262
1	1885	6263
1	1924	6264
1	1972	6265
1	2013	6266
1	2052	6267
1	2078	6268
1	2100	6269
1	2105	6270
1	2084	6271
1	2069	6272
1	2048	6273
1	2025	6274
1	1996	6275
1	1972	6276
1	1937	6277
1	1898	6278
1	1869	6279
1	1854	6280
1	1846	6281
1	1855	6282
1	1873	6283
1	1904	6284
1	1942	6285
1	1973	6286
1	1988	6287
1	1999	6288
1	2003	6289
1	1999	6290
1	1995	6291
1	1978	6292
1	1970	6293
1	1965	6294
1	1969	6295
1	1974	6296
1	1983	6297
1	1996	6298
1	2001	6299
1	2008	6300
1	1998	6301
1	1991	6302
1	1977	6303
1	1964	6304
1	1948	6305
1	1927	6306
1	1922	6307
1	1903	6308
1	1885	6309
1	1874	6310
1	1881	6311
1	1899	6312
1	1922	6313
1	1944	6314
1	1967	6315
1	1993	6316
1	2012	6317
1	2031	6318
1	2044	6319
1	2045	6320
1	2043	6321
1	2050	6322
1	2048	6323
1	2052	6324
1	2060	6325
1	2055	6326
1	2055	6327
1	2055	6328
1	2056	6329
1	2049	6330
1	2027	6331
1	2001	6332
1	1976	6333
1	1953	6334
1	1935	6335
1	1922	6336
1	1899	6337
1	1893	6338
1	1883	6339
1	1891	6340
1	1895	6341
1	1912	6342
1	1931	6343
1	1962	6344
1	1999	6345
1	2029	6346
1	2051	6347
1	2066	6348
1	2077	6349
1	2081	6350
1	2079	6351
1	2079	6352
1	2065	6353
1	2043	6354
1	2019	6355
1	1991	6356
1	1961	6357
1	1935	6358
1	1916	6359
1	1898	6360
1	1883	6361
1	1886	6362
1	1899	6363
1	1914	6364
1	1933	6365
1	1953	6366
1	1987	6367
1	2014	6368
1	2043	6369
1	2067	6370
1	2088	6371
1	2104	6372
1	2110	6373
1	2109	6374
1	2102	6375
1	2076	6376
1	2052	6377
1	2015	6378
1	1981	6379
1	1961	6380
1	1956	6381
1	1966	6382
1	1979	6383
1	2007	6384
1	2039	6385
1	2076	6386
1	2106	6387
1	2129	6388
1	2137	6389
1	2138	6390
1	2125	6391
1	2116	6392
1	2104	6393
1	2086	6394
1	2069	6395
1	2059	6396
1	2062	6397
1	2065	6398
1	2067	6399
1	2075	6400
1	2076	6401
1	2077	6402
1	2079	6403
1	2084	6404
1	2083	6405
1	2076	6406
1	2073	6407
1	2073	6408
1	2074	6409
1	2074	6410
1	2074	6411
1	2081	6412
1	2076	6413
1	2057	6414
1	2040	6415
1	2025	6416
1	2017	6417
1	2016	6418
1	2018	6419
1	2024	6420
1	2021	6421
1	2021	6422
1	2022	6423
1	2016	6424
1	2012	6425
1	2002	6426
1	1993	6427
1	1989	6428
1	1992	6429
1	2007	6430
1	2016	6431
1	2026	6432
1	2038	6433
1	2048	6434
1	2058	6435
1	2066	6436
1	2068	6437
1	2067	6438
1	2065	6439
1	1894	6500
1	1906	6501
1	1922	6502
1	1922	6503
1	1908	6504
1	1883	6505
1	1866	6506
1	1843	6507
1	1829	6508
1	1818	6509
1	1817	6510
1	1828	6511
1	1838	6512
1	1849	6513
1	1856	6514
1	1857	6515
1	1854	6516
1	1852	6517
1	1845	6518
1	1842	6519
1	1823	6480
1	1802	6481
1	1801	6482
1	1816	6483
1	1841	6484
1	1871	6485
1	1909	6486
1	1943	6487
1	1961	6488
1	1971	6489
1	1975	6490
1	1976	6491
1	1971	6492
1	1960	6493
1	1940	6494
1	1917	6495
1	1890	6496
1	1884	6497
1	1878	6498
1	1883	6499
1	1988	6460
1	1975	6461
1	1971	6462
1	1974	6463
1	1978	6464
1	1986	6465
1	1991	6466
1	1994	6467
1	1995	6468
1	1989	6469
1	1984	6470
1	1974	6471
1	1969	6472
1	1948	6473
1	1921	6474
1	1893	6475
1	1868	6476
1	1854	6477
1	1843	6478
1	1832	6479
1	2060	6440
1	2050	6441
1	2040	6442
1	2019	6443
1	2003	6444
1	1993	6445
1	1985	6446
1	1980	6447
1	1995	6448
1	2021	6449
1	2048	6450
1	2060	6451
1	2063	6452
1	2063	6453
1	2057	6454
1	2050	6455
1	2039	6456
1	2034	6457
1	2021	6458
1	2003	6459
1	1738	6540
1	1750	6541
1	1760	6542
1	1778	6543
1	1799	6544
1	1832	6545
1	1860	6546
1	1895	6547
1	1932	6548
1	1962	6549
1	1985	6550
1	1989	6551
1	1976	6552
1	1949	6553
1	1908	6554
1	1854	6555
1	1798	6556
1	1751	6557
1	1719	6558
1	1701	6559
1	1829	6520
1	1817	6521
1	1798	6522
1	1791	6523
1	1789	6524
1	1787	6525
1	1783	6526
1	1785	6527
1	1793	6528
1	1813	6529
1	1823	6530
1	1832	6531
1	1822	6532
1	1817	6533
1	1809	6534
1	1802	6535
1	1782	6536
1	1763	6537
1	1747	6538
1	1738	6539
1	1695	6560
1	1698	6561
1	1712	6562
1	1733	6563
1	1754	6564
1	1787	6565
1	1817	6566
1	1843	6567
1	1862	6568
1	1878	6569
1	1887	6570
1	1895	6571
1	1895	6572
1	1886	6573
1	1872	6574
1	1854	6575
1	1836	6576
1	1821	6577
1	1811	6578
1	1791	6579
1	1793	6580
1	1796	6581
1	1809	6582
1	1823	6583
1	1837	6584
1	1847	6585
1	1861	6586
1	1865	6587
1	1868	6588
1	1869	6589
1	1868	6590
1	1859	6591
1	1854	6592
1	1841	6593
1	1820	6594
1	1809	6595
1	1809	6596
1	1803	6597
1	1802	6598
1	1796	6599
1	1791	6600
1	1782	6601
1	1763	6602
1	1751	6603
1	1746	6604
1	1751	6605
1	1760	6606
1	1785	6607
1	1811	6608
1	1838	6609
1	1859	6610
1	1873	6611
1	1882	6612
1	1883	6613
1	1878	6614
1	1871	6615
1	1869	6616
1	1860	6617
1	1858	6618
1	1862	6619
1	1867	6640
1	1872	6641
1	1887	6642
1	1883	6643
1	1880	6644
1	1884	6645
1	1874	6646
1	1875	6647
1	1879	6648
1	1880	6649
1	1880	6650
1	1869	6651
1	1856	6652
1	1843	6653
1	1831	6654
1	1819	6655
1	1814	6656
1	1801	6657
1	1801	6658
1	1809	6659
1	1823	6640
1	1825	6641
1	1818	6642
1	1802	6643
1	1779	6644
1	1760	6645
1	1741	6646
1	1715	6647
1	1698	6648
1	1684	6649
1	1669	6650
1	1659	6651
1	1660	6652
1	1660	6653
1	1669	6654
1	1688	6655
1	1716	6656
1	1746	6657
1	1777	6658
1	1816	6659
1	1845	6660
1	1863	6661
1	1865	6662
1	1866	6663
1	1859	6664
1	1853	6665
1	1843	6666
1	1834	6667
1	1818	6668
1	1815	6669
1	1809	6670
1	1809	6671
1	1814	6672
1	1823	6673
1	1838	6674
1	1848	6675
1	1862	6676
1	1865	6677
1	1859	6678
1	1845	6679
1	1961	6700
1	1949	6701
1	1931	6702
1	1908	6703
1	1877	6704
1	1845	6705
1	1821	6706
1	1796	6707
1	1793	6708
1	1807	6709
1	1827	6710
1	1850	6711
1	1881	6712
1	1909	6713
1	1935	6714
1	1960	6715
1	1976	6716
1	1987	6717
1	1987	6718
1	1980	6719
1	1831	6680
1	1817	6681
1	1819	6682
1	1817	6683
1	1818	6684
1	1824	6685
1	1832	6686
1	1839	6687
1	1847	6688
1	1863	6689
1	1881	6690
1	1898	6691
1	1913	6692
1	1936	6693
1	1962	6694
1	1983	6695
1	1992	6696
1	1993	6697
1	1981	6698
1	1974	6699
1	1971	6720
1	1961	6721
1	1935	6722
1	1910	6723
1	1877	6724
1	1843	6725
1	1815	6726
1	1782	6727
1	1762	6728
1	1741	6729
1	1736	6730
1	1726	6731
1	1719	6732
1	1724	6733
1	1738	6734
1	1755	6735
1	1770	6736
1	1773	6737
1	1778	6738
1	1787	6739
1	1788	6740
1	1783	6741
1	1785	6742
1	1778	6743
1	1769	6744
1	1762	6745
1	1750	6746
1	1737	6747
1	1728	6748
1	1723	6749
1	1715	6750
1	1714	6751
1	1716	6752
1	1731	6753
1	1737	6754
1	1739	6755
1	1737	6756
1	1737	6757
1	1738	6758
1	1751	6759
1	1769	6760
1	1791	6761
1	1817	6762
1	1842	6763
1	1861	6764
1	1881	6765
1	1898	6766
1	1899	6767
1	1898	6768
1	1893	6769
1	1885	6770
1	1882	6771
1	1886	6772
1	1881	6773
1	1875	6774
1	1869	6775
1	1859	6776
1	1847	6777
1	1832	6778
1	1818	6779
1	1809	6780
1	1796	6781
1	1789	6782
1	1777	6783
1	1764	6784
1	1760	6785
1	1760	6786
1	1769	6787
1	1769	6788
1	1773	6789
1	1770	6790
1	1764	6791
1	1751	6792
1	1736	6793
1	1718	6794
1	1706	6795
1	1697	6796
1	1682	6797
1	1669	6798
1	1660	6799
1	1660	6800
1	1672	6801
1	1701	6802
1	1739	6803
1	1786	6804
1	1841	6805
1	1888	6806
1	1934	6807
1	1969	6808
1	1983	6809
1	1983	6810
1	1968	6811
1	1936	6812
1	1904	6813
1	1868	6814
1	1836	6815
1	1796	6816
1	1773	6817
1	1746	6818
1	1725	6819
1	1714	6820
1	1715	6821
1	1714	6822
1	1720	6823
1	1731	6824
1	1742	6825
1	1749	6826
1	1755	6827
1	1751	6828
1	1746	6829
1	1746	6830
1	1743	6831
1	1746	6832
1	1755	6833
1	1762	6834
1	1775	6835
1	1775	6836
1	1764	6837
1	1747	6838
1	1731	6839
1	1716	6840
1	1711	6841
1	1705	6842
1	1710	6843
1	1715	6844
1	1733	6845
1	1751	6846
1	1776	6847
1	1796	6848
1	1818	6849
1	1835	6850
1	1849	6851
1	1863	6852
1	1872	6853
1	1880	6854
1	1882	6855
1	1878	6856
1	1860	6857
1	1839	6858
1	1813	6859
1	1791	6860
1	1786	6861
1	1792	6862
1	1793	6863
1	1787	6864
1	1776	6865
1	1766	6866
1	1764	6867
1	1764	6868
1	1767	6869
1	1769	6870
1	1777	6871
1	1785	6872
1	1796	6873
1	1821	6874
1	1838	6875
1	1856	6876
1	1877	6877
1	1893	6878
1	1896	6879
1	1890	6880
1	1872	6881
1	1847	6882
1	1824	6883
1	1803	6884
1	1790	6885
1	1782	6886
1	1778	6887
1	1782	6888
1	1795	6889
1	1814	6890
1	1830	6891
1	1856	6892
1	1869	6893
1	1880	6894
1	1881	6895
1	1888	6896
1	1895	6897
1	1898	6898
1	1892	6899
1	1880	6900
1	1868	6901
1	1843	6902
1	1825	6903
1	1812	6904
1	1795	6905
1	1791	6906
1	1803	6907
1	1813	6908
1	1817	6909
1	1817	6910
1	1819	6911
1	1822	6912
1	1828	6913
1	1835	6914
1	1843	6915
1	1845	6916
1	1843	6917
1	1845	6918
1	1856	6919
1	1870	6940
1	1878	6941
1	1885	6942
1	1877	6943
1	1869	6944
1	1866	6945
1	1844	6946
1	1829	6947
1	1817	6948
1	1801	6949
1	1793	6950
1	1796	6951
1	1812	6952
1	1821	6953
1	1832	6954
1	1841	6955
1	1854	6956
1	1862	6957
1	1880	6958
1	1893	6959
1	1904	6940
1	1906	6941
1	1903	6942
1	1903	6943
1	1908	6944
1	1922	6945
1	1935	6946
1	1944	6947
1	1958	6948
1	1962	6949
1	1965	6950
1	1961	6951
1	1953	6952
1	1937	6953
1	1922	6954
1	1910	6955
1	1908	6956
1	1904	6957
1	1901	6958
1	1896	6959
1	1895	6960
1	1893	6961
1	1890	6962
1	1903	6963
1	1921	6964
1	1935	6965
1	1940	6966
1	1944	6967
1	1933	6968
1	1922	6969
1	1913	6970
1	1904	6971
1	1895	6972
1	1886	6973
1	1878	6974
1	1871	6975
1	1872	6976
1	1865	6977
1	1868	6978
1	1871	6979
1	1886	6980
1	1908	6981
1	1933	6982
1	1953	6983
1	1971	6984
1	1986	6985
1	1996	6986
1	1991	6987
1	1985	6988
1	1974	6989
1	1958	6990
1	1943	6991
1	1917	6992
1	1896	6993
1	1872	6994
1	1847	6995
1	1818	6996
1	1793	6997
1	1770	6998
1	1753	6999
1	1747	7000
1	1751	7001
1	1763	7002
1	1770	7003
1	1788	7004
1	1800	7005
1	1823	7006
1	1832	7007
1	1850	7008
1	1869	7009
1	1893	7010
1	1911	7011
1	1935	7012
1	1944	7013
1	1947	7014
1	1935	7015
1	1913	7016
1	1881	7017
1	1854	7018
1	1831	7019
1	1764	7040
1	1762	7041
1	1766	7042
1	1772	7043
1	1782	7044
1	1787	7045
1	1783	7046
1	1778	7047
1	1767	7048
1	1755	7049
1	1739	7050
1	1729	7051
1	1716	7052
1	1723	7053
1	1734	7054
1	1746	7055
1	1749	7056
1	1754	7057
1	1754	7058
1	1762	7059
1	1817	7020
1	1814	7021
1	1801	7022
1	1798	7023
1	1791	7024
1	1780	7025
1	1770	7026
1	1764	7027
1	1767	7028
1	1767	7029
1	1766	7030
1	1770	7031
1	1769	7032
1	1769	7033
1	1765	7034
1	1764	7035
1	1764	7036
1	1752	7037
1	1753	7038
1	1760	7039
1	1754	7080
1	1752	7081
1	1752	7082
1	1756	7083
1	1764	7084
1	1772	7085
1	1773	7086
1	1778	7087
1	1779	7088
1	1780	7089
1	1786	7090
1	1789	7091
1	1791	7092
1	1798	7093
1	1808	7094
1	1817	7095
1	1825	7096
1	1826	7097
1	1836	7098
1	1842	7099
1	1772	7060
1	1788	7061
1	1796	7062
1	1795	7063
1	1791	7064
1	1782	7065
1	1775	7066
1	1765	7067
1	1764	7068
1	1763	7069
1	1757	7070
1	1749	7071
1	1748	7072
1	1744	7073
1	1740	7074
1	1737	7075
1	1742	7076
1	1756	7077
1	1764	7078
1	1764	7079
1	1844	7100
1	1846	7101
1	1853	7102
1	1847	7103
1	1845	7104
1	1845	7105
1	1845	7106
1	1842	7107
1	1824	7108
1	1794	7109
1	1766	7110
1	1741	7111
1	1712	7112
1	1686	7113
1	1661	7114
1	1649	7115
1	1652	7116
1	1672	7117
1	1685	7118
1	1694	7119
1	1710	7120
1	1729	7121
1	1742	7122
1	1762	7123
1	1781	7124
1	1795	7125
1	1817	7126
1	1824	7127
1	1828	7128
1	1828	7129
1	1818	7130
1	1799	7131
1	1777	7132
1	1763	7133
1	1746	7134
1	1739	7135
1	1729	7136
1	1716	7137
1	1712	7138
1	1712	7139
1	1712	7140
1	1713	7141
1	1711	7142
1	1710	7143
1	1708	7144
1	1706	7145
1	1706	7146
1	1712	7147
1	1716	7148
1	1729	7149
1	1746	7150
1	1766	7151
1	1789	7152
1	1814	7153
1	1832	7154
1	1852	7155
1	1868	7156
1	1868	7157
1	1868	7158
1	1870	7159
1	1879	7160
1	1888	7161
1	1905	7162
1	1912	7163
1	1916	7164
1	1905	7165
1	1886	7166
1	1854	7167
1	1819	7168
1	1778	7169
1	1744	7170
1	1710	7171
1	1674	7172
1	1648	7173
1	1629	7174
1	1610	7175
1	1603	7176
1	1607	7177
1	1611	7178
1	1623	7179
1	1639	7180
1	1661	7181
1	1687	7182
1	1712	7183
1	1731	7184
1	1743	7185
1	1747	7186
1	1736	7187
1	1724	7188
1	1716	7189
1	1716	7190
1	1723	7191
1	1740	7192
1	1756	7193
1	1778	7194
1	1799	7195
1	1817	7196
1	1827	7197
1	1832	7198
1	1834	7199
1	1831	7200
1	1820	7201
1	1802	7202
1	1796	7203
1	1791	7204
1	1777	7205
1	1764	7206
1	1764	7207
1	1757	7208
1	1757	7209
1	1760	7210
1	1762	7211
1	1760	7212
1	1751	7213
1	1738	7214
1	1724	7215
1	1717	7216
1	1709	7217
1	1710	7218
1	1710	7219
1	1706	7220
1	1707	7221
1	1713	7222
1	1713	7223
1	1716	7224
1	1729	7225
1	1726	7226
1	1731	7227
1	1733	7228
1	1737	7229
1	1740	7230
1	1748	7231
1	1747	7232
1	1742	7233
1	1733	7234
1	1718	7235
1	1708	7236
1	1699	7237
1	1701	7238
1	1706	7239
1	1714	7240
1	1712	7241
1	1708	7242
1	1697	7243
1	1685	7244
1	1670	7245
1	1660	7246
1	1647	7247
1	1643	7248
1	1642	7249
1	1643	7250
1	1658	7251
1	1685	7252
1	1712	7253
1	1739	7254
1	1772	7255
1	1796	7256
1	1818	7257
1	1825	7258
1	1821	7259
1	1809	7260
1	1791	7261
1	1769	7262
1	1756	7263
1	1749	7264
1	1741	7265
1	1733	7266
1	1724	7267
1	1712	7268
1	1708	7269
1	1706	7270
1	1708	7271
1	1710	7272
1	1712	7273
1	1718	7274
1	1728	7275
1	1738	7276
1	1750	7277
1	1760	7278
1	1768	7279
1	1762	7280
1	1747	7281
1	1737	7282
1	1721	7283
1	1705	7284
1	1692	7285
1	1679	7286
1	1667	7287
1	1660	7288
1	1661	7289
1	1667	7290
1	1674	7291
1	1681	7292
1	1696	7293
1	1716	7294
1	1736	7295
1	1746	7296
1	1754	7297
1	1755	7298
1	1754	7299
1	1746	7300
1	1739	7301
1	1738	7302
1	1738	7303
1	1738	7304
1	1737	7305
1	1734	7306
1	1722	7307
1	1713	7308
1	1712	7309
1	1719	7310
1	1736	7311
1	1757	7312
1	1769	7313
1	1777	7314
1	1769	7315
1	1751	7316
1	1724	7317
1	1694	7318
1	1671	7319
1	1649	7320
1	1639	7321
1	1634	7322
1	1632	7323
1	1625	7324
1	1621	7325
1	1632	7326
1	1637	7327
1	1659	7328
1	1674	7329
1	1695	7330
1	1706	7331
1	1711	7332
1	1707	7333
1	1697	7334
1	1681	7335
1	1664	7336
1	1651	7337
1	1651	7338
1	1656	7339
1	1660	7340
1	1670	7341
1	1686	7342
1	1694	7343
1	1704	7344
1	1716	7345
1	1737	7346
1	1742	7347
1	1742	7348
1	1737	7349
1	1725	7350
1	1710	7351
1	1683	7352
1	1660	7353
1	1638	7354
1	1631	7355
1	1629	7356
1	1647	7357
1	1660	7358
1	1680	7359
1	1703	7360
1	1723	7361
1	1731	7362
1	1722	7363
1	1701	7364
1	1669	7365
1	1638	7366
1	1607	7367
1	1589	7368
1	1585	7369
1	1594	7370
1	1616	7371
1	1647	7372
1	1679	7373
1	1710	7374
1	1738	7375
1	1762	7376
1	1769	7377
1	1770	7378
1	1767	7379
1	1764	7380
1	1756	7381
1	1740	7382
1	1733	7383
1	1721	7384
1	1710	7385
1	1694	7386
1	1688	7387
1	1679	7388
1	1667	7389
1	1660	7390
1	1647	7391
1	1636	7392
1	1630	7393
1	1623	7394
1	1617	7395
1	1610	7396
1	1602	7397
1	1597	7398
1	1598	7399
1	1597	7400
1	1607	7401
1	1628	7402
1	1648	7403
1	1680	7404
1	1712	7405
1	1741	7406
1	1755	7407
1	1756	7408
1	1742	7409
1	1726	7410
1	1713	7411
1	1692	7412
1	1673	7413
1	1647	7414
1	1623	7415
1	1600	7416
1	1589	7417
1	1580	7418
1	1572	7419
1	1566	7420
1	1564	7421
1	1554	7422
1	1539	7423
1	1527	7424
1	1521	7425
1	1530	7426
1	1555	7427
1	1583	7428
1	1616	7429
1	1642	7430
1	1659	7431
1	1670	7432
1	1686	7433
1	1691	7434
1	1692	7435
1	1695	7436
1	1694	7437
1	1682	7438
1	1660	7439
1	1639	7440
1	1625	7441
1	1607	7442
1	1600	7443
1	1595	7444
1	1598	7445
1	1608	7446
1	1633	7447
1	1647	7448
1	1667	7449
1	1686	7450
1	1702	7451
1	1716	7452
1	1733	7453
1	1742	7454
1	1751	7455
1	1752	7456
1	1738	7457
1	1720	7458
1	1700	7459
1	1680	7460
1	1663	7461
1	1657	7462
1	1646	7463
1	1638	7464
1	1634	7465
1	1638	7466
1	1644	7467
1	1656	7468
1	1662	7469
1	1666	7470
1	1662	7471
1	1655	7472
1	1649	7473
1	1647	7474
1	1639	7475
1	1634	7476
1	1629	7477
1	1616	7478
1	1607	7479
1	1607	7480
1	1616	7481
1	1633	7482
1	1652	7483
1	1669	7484
1	1680	7485
1	1674	7486
1	1657	7487
1	1643	7488
1	1629	7489
1	1619	7490
1	1610	7491
1	1610	7492
1	1611	7493
1	1613	7494
1	1625	7495
1	1636	7496
1	1650	7497
1	1656	7498
1	1647	7499
1	1620	7500
1	1589	7501
1	1555	7502
1	1529	7503
1	1513	7504
1	1503	7505
1	1502	7506
1	1507	7507
1	1517	7508
1	1530	7509
1	1548	7510
1	1564	7511
1	1583	7512
1	1600	7513
1	1614	7514
1	1620	7515
1	1620	7516
1	1603	7517
1	1589	7518
1	1573	7519
1	1536	7540
1	1539	7541
1	1530	7542
1	1526	7543
1	1525	7544
1	1527	7545
1	1531	7546
1	1539	7547
1	1553	7548
1	1566	7549
1	1570	7550
1	1566	7551
1	1557	7552
1	1542	7553
1	1527	7554
1	1512	7555
1	1508	7556
1	1511	7557
1	1518	7558
1	1539	7559
1	1566	7560
1	1602	7561
1	1634	7562
1	1665	7563
1	1699	7564
1	1734	7565
1	1764	7566
1	1800	7567
1	1834	7568
1	1866	7569
1	1901	7570
1	1939	7571
1	1973	7572
1	1995	7573
1	2010	7574
1	2021	7575
1	2031	7576
1	2037	7577
1	2045	7578
1	2048	7579
1	1560	7520
1	1551	7521
1	1543	7522
1	1526	7523
1	1519	7524
1	1519	7525
1	1503	7526
1	1495	7527
1	1479	7528
1	1472	7529
1	1466	7530
1	1472	7531
1	1481	7532
1	1500	7533
1	1515	7534
1	1528	7535
1	1538	7536
1	1542	7537
1	1548	7538
1	1543	7539
1	2042	7600
1	2035	7601
1	2030	7602
1	2014	7603
1	1994	7604
1	1967	7605
1	1939	7606
1	1905	7607
1	1863	7608
1	1814	7609
1	1751	7610
1	1682	7611
1	1603	7612
1	1531	7613
1	1465	7614
1	1403	7615
1	1345	7616
1	1298	7617
1	1250	7618
1	1211	7619
1	1178	7600
1	1154	7601
1	1139	7602
1	1136	7603
1	1152	7604
1	1189	7605
1	1243	7606
1	1301	7607
1	1364	7608
1	1430	7609
1	1477	7610
1	1515	7611
1	1548	7612
1	1560	7613
1	1561	7614
1	1556	7615
1	1551	7616
1	1549	7617
1	1555	7618
1	1575	7619
1	1585	7620
1	1581	7621
1	1554	7622
1	1529	7623
1	1503	7624
1	1478	7625
1	1458	7626
1	1440	7627
1	1440	7628
1	1440	7629
1	1455	7630
1	1474	7631
1	1490	7632
1	1503	7633
1	1509	7634
1	1518	7635
1	1524	7636
1	1530	7637
1	1542	7638
1	1553	7639
1	1556	7640
1	1559	7641
1	1557	7642
1	1549	7643
1	1534	7644
1	1521	7645
1	1503	7646
1	1485	7647
1	1471	7648
1	1458	7649
1	1450	7650
1	1443	7651
1	1430	7652
1	1424	7653
1	1420	7654
1	1428	7655
1	1450	7656
1	1487	7657
1	1521	7658
1	1551	7659
1	1481	7680
1	1474	7681
1	1467	7682
1	1467	7683
1	1465	7684
1	1464	7685
1	1467	7686
1	1480	7687
1	1499	7688
1	1514	7689
1	1529	7690
1	1531	7691
1	1534	7692
1	1539	7693
1	1542	7694
1	1544	7695
1	1542	7696
1	1528	7697
1	1513	7698
1	1503	7699
1	1573	7660
1	1589	7661
1	1592	7662
1	1587	7663
1	1574	7664
1	1556	7665
1	1538	7666
1	1515	7667
1	1501	7668
1	1490	7669
1	1489	7670
1	1494	7671
1	1508	7672
1	1520	7673
1	1529	7674
1	1533	7675
1	1533	7676
1	1531	7677
1	1519	7678
1	1502	7679
1	1492	7700
1	1485	7701
1	1490	7702
1	1495	7703
1	1503	7704
1	1511	7705
1	1526	7706
1	1537	7707
1	1543	7708
1	1550	7709
1	1552	7710
1	1554	7711
1	1551	7712
1	1554	7713
1	1555	7714
1	1557	7715
1	1561	7716
1	1563	7717
1	1555	7718
1	1538	7719
1	1521	7720
1	1504	7721
1	1490	7722
1	1481	7723
1	1473	7724
1	1467	7725
1	1468	7726
1	1477	7727
1	1500	7728
1	1520	7729
1	1541	7730
1	1557	7731
1	1568	7732
1	1581	7733
1	1591	7734
1	1594	7735
1	1597	7736
1	1587	7737
1	1573	7738
1	1554	7739
1	1539	7740
1	1527	7741
1	1508	7742
1	1503	7743
1	1504	7744
1	1517	7745
1	1531	7746
1	1555	7747
1	1569	7748
1	1571	7749
1	1571	7750
1	1571	7751
1	1568	7752
1	1567	7753
1	1564	7754
1	1559	7755
1	1560	7756
1	1560	7757
1	1570	7758
1	1575	7759
1	1575	7760
1	1579	7761
1	1581	7762
1	1581	7763
1	1584	7764
1	1585	7765
1	1589	7766
1	1581	7767
1	1568	7768
1	1556	7769
1	1555	7770
1	1560	7771
1	1561	7772
1	1565	7773
1	1568	7774
1	1566	7775
1	1561	7776
1	1560	7777
1	1558	7778
1	1566	7779
1	1576	7780
1	1591	7781
1	1603	7782
1	1611	7783
1	1622	7784
1	1626	7785
1	1616	7786
1	1599	7787
1	1581	7788
1	1558	7789
1	1541	7790
1	1529	7791
1	1530	7792
1	1531	7793
1	1537	7794
1	1541	7795
1	1547	7796
1	1556	7797
1	1567	7798
1	1573	7799
1	1580	7800
1	1582	7801
1	1581	7802
1	1581	7803
1	1580	7804
1	1574	7805
1	1566	7806
1	1560	7807
1	1544	7808
1	1529	7809
1	1515	7810
1	1500	7811
1	1489	7812
1	1478	7813
1	1477	7814
1	1477	7815
1	1476	7816
1	1476	7817
1	1482	7818
1	1499	7819
1	1521	7820
1	1540	7821
1	1557	7822
1	1555	7823
1	1559	7824
1	1554	7825
1	1551	7826
1	1540	7827
1	1527	7828
1	1508	7829
1	1490	7830
1	1467	7831
1	1446	7832
1	1424	7833
1	1402	7834
1	1384	7835
1	1371	7836
1	1371	7837
1	1377	7838
1	1396	7839
1	1409	7840
1	1432	7841
1	1450	7842
1	1475	7843
1	1500	7844
1	1516	7845
1	1526	7846
1	1514	7847
1	1494	7848
1	1472	7849
1	1450	7850
1	1427	7851
1	1411	7852
1	1382	7853
1	1359	7854
1	1338	7855
1	1323	7856
1	1319	7857
1	1320	7858
1	1330	7859
1	1346	7860
1	1363	7861
1	1372	7862
1	1382	7863
1	1384	7864
1	1395	7865
1	1405	7866
1	1424	7867
1	1442	7868
1	1463	7869
1	1482	7870
1	1492	7871
1	1487	7872
1	1460	7873
1	1425	7874
1	1390	7875
1	1350	7876
1	1317	7877
1	1287	7878
1	1264	7879
1	1246	7880
1	1241	7881
1	1245	7882
1	1244	7883
1	1248	7884
1	1257	7885
1	1268	7886
1	1285	7887
1	1295	7888
1	1306	7889
1	1313	7890
1	1319	7891
1	1323	7892
1	1333	7893
1	1345	7894
1	1346	7895
1	1341	7896
1	1337	7897
1	1322	7898
1	1309	7899
1	1297	7900
1	1292	7901
1	1293	7902
1	1296	7903
1	1310	7904
1	1331	7905
1	1347	7906
1	1358	7907
1	1360	7908
1	1353	7909
1	1344	7910
1	1328	7911
1	1317	7912
1	1301	7913
1	1294	7914
1	1296	7915
1	1304	7916
1	1305	7917
1	1304	7918
1	1299	7919
1	1293	7920
1	1286	7921
1	1276	7922
1	1278	7923
1	1284	7924
1	1297	7925
1	1314	7926
1	1323	7927
1	1331	7928
1	1332	7929
1	1332	7930
1	1320	7931
1	1303	7932
1	1279	7933
1	1268	7934
1	1263	7935
1	1263	7936
1	1269	7937
1	1293	7938
1	1314	7939
1	1332	7940
1	1346	7941
1	1368	7942
1	1379	7943
1	1383	7944
1	1377	7945
1	1372	7946
1	1368	7947
1	1364	7948
1	1353	7949
1	1345	7950
1	1340	7951
1	1332	7952
1	1330	7953
1	1328	7954
1	1319	7955
1	1294	7956
1	1272	7957
1	1249	7958
1	1229	7959
1	1213	7960
1	1201	7961
1	1194	7962
1	1193	7963
1	1201	7964
1	1215	7965
1	1235	7966
1	1255	7967
1	1279	7968
1	1307	7969
1	1333	7970
1	1351	7971
1	1371	7972
1	1377	7973
1	1391	7974
1	1391	7975
1	1384	7976
1	1372	7977
1	1355	7978
1	1346	7979
1	1335	7980
1	1332	7981
1	1332	7982
1	1335	7983
1	1344	7984
1	1346	7985
1	1337	7986
1	1332	7987
1	1322	7988
1	1310	7989
1	1292	7990
1	1267	7991
1	1241	7992
1	1219	7993
1	1205	7994
1	1193	7995
1	1180	7996
1	1165	7997
1	1161	7998
1	1157	7999
1	1150	8000
1	1151	8000
1	1166	8002
1	1193	8003
1	1226	8004
1	1256	8005
1	1283	8006
1	1312	8007
1	1337	8008
1	1355	8009
1	1367	8010
1	1372	8011
1	1369	8012
1	1365	8013
1	1359	8013
1	1355	8015
1	1346	8016
1	1333	8016
1	1309	8018
1	1278	8019
1	1238	8020
1	1200	8021
1	1162	8022
1	1140	8023
1	1131	8024
1	1131	8025
1	1138	8026
1	1157	8027
1	1179	8028
1	1211	8029
1	1241	8029
1	1273	8031
1	1301	8032
1	1319	8032
1	1330	8034
1	1340	8035
1	1338	8036
1	1337	8037
1	1341	8038
1	1346	8039
1	1346	8040
1	1337	8041
1	1314	8042
1	1294	8043
1	1281	8044
1	1267	8045
1	1256	8045
1	1253	8047
1	1242	8048
1	1240	8048
1	1241	8050
1	1246	8051
1	1254	8052
1	1260	8053
1	1263	8054
1	1268	8055
1	1267	8056
1	1252	8057
1	1241	8058
1	1228	8059
1	1218	8060
1	1215	8061
1	1216	8061
1	1217	8063
1	1222	8064
1	1229	8064
1	1232	8066
1	1238	8067
1	1242	8068
1	1258	8069
1	1277	8070
1	1297	8071
1	1314	8072
1	1323	8073
1	1332	8074
1	1332	8074
1	1328	8076
1	1325	8077
1	1319	8077
1	1310	8079
1	1296	8080
1	1284	8080
1	1269	8082
1	1265	8083
1	1257	8084
1	1258	8085
1	1258	8086
1	1256	8087
1	1258	8088
1	1265	8089
1	1271	8090
1	1288	8090
1	1307	8092
1	1324	8093
1	1337	8093
1	1347	8095
1	1358	8096
1	1371	8096
1	1377	8098
1	1382	8099
1	1372	8100
1	1351	8101
1	1325	8102
1	1306	8103
1	1289	8104
1	1267	8105
1	1252	8106
1	1241	8106
1	1225	8108
1	1215	8109
1	1202	8109
1	1193	8111
1	1188	8112
1	1185	8113
1	1186	8114
1	1188	8115
1	1196	8116
1	1201	8117
1	1209	8118
1	1215	8119
1	1212	8140
1	1212	8141
1	1223	8141
1	1230	8143
1	1238	8144
1	1245	8145
1	1250	8146
1	1247	8147
1	1246	8148
1	1241	8149
1	1236	8150
1	1229	8151
1	1221	8152
1	1214	8153
1	1206	8154
1	1203	8154
1	1197	8156
1	1189	8157
1	1188	8157
1	1193	8159
1	1213	8140
1	1228	8141
1	1237	8141
1	1244	8143
1	1258	8144
1	1268	8145
1	1278	8146
1	1278	8147
1	1279	8148
1	1281	8149
1	1274	8150
1	1266	8151
1	1260	8152
1	1243	8153
1	1229	8154
1	1219	8154
1	1214	8156
1	1211	8157
1	1209	8157
1	1211	8159
1	1215	8160
1	1226	8161
1	1228	8162
1	1228	8163
1	1222	8164
1	1213	8165
1	1193	8166
1	1184	8167
1	1168	8168
1	1160	8169
1	1147	8170
1	1137	8170
1	1137	8172
1	1140	8173
1	1150	8173
1	1158	8175
1	1164	8176
1	1171	8177
1	1186	8178
1	1194	8179
1	1202	8180
1	1209	8181
1	1224	8182
1	1241	8183
1	1262	8184
1	1286	8185
1	1317	8186
1	1347	8186
1	1382	8188
1	1415	8189
1	1433	8189
1	1443	8191
1	1446	8192
1	1453	8193
1	1469	8194
1	1489	8195
1	1513	8196
1	1548	8197
1	1582	8198
1	1623	8199
1	1660	8200
1	1694	8201
1	1723	8202
1	1746	8203
1	1766	8204
1	1791	8205
1	1816	8206
1	1823	8207
1	1827	8208
1	1818	8209
1	1798	8210
1	1765	8211
1	1724	8212
1	1651	8213
1	1562	8214
1	1469	8215
1	1368	8216
1	1271	8217
1	1181	8218
1	1106	8219
1	1035	8220
1	990	8221
1	945	8222
1	925	8223
1	914	8224
1	916	8225
1	928	8226
1	950	8227
1	978	8228
1	1004	8229
1	1031	8230
1	1062	8231
1	1086	8232
1	1110	8233
1	1125	8234
1	1140	8235
1	1154	8236
1	1157	8237
1	1159	8238
1	1161	8239
1	1165	8240
1	1170	8241
1	1176	8242
1	1178	8243
1	1180	8244
1	1176	8245
1	1171	8246
1	1170	8247
1	1175	8248
1	1191	8249
1	1219	8250
1	1248	8251
1	1268	8252
1	1292	8253
1	1305	8254
1	1317	8255
1	1322	8256
1	1328	8257
1	1321	8258
1	1309	8259
1	1296	8260
1	1293	8261
1	1293	8262
1	1299	8263
1	1307	8264
1	1308	8265
1	1308	8266
1	1301	8267
1	1301	8268
1	1301	8269
1	1303	8270
1	1307	8271
1	1310	8272
1	1304	8273
1	1288	8274
1	1270	8275
1	1247	8276
1	1226	8277
1	1211	8278
1	1204	8279
1	1212	8280
1	1229	8281
1	1249	8282
1	1269	8283
1	1283	8284
1	1291	8285
1	1293	8286
1	1301	8287
1	1305	8288
1	1305	8289
1	1307	8290
1	1312	8291
1	1319	8292
1	1327	8293
1	1331	8294
1	1332	8295
1	1333	8296
1	1328	8297
1	1322	8298
1	1320	8299
1	1320	8300
1	1321	8301
1	1332	8302
1	1332	8303
1	1338	8304
1	1337	8305
1	1341	8306
1	1345	8307
1	1348	8308
1	1347	8309
1	1346	8310
1	1342	8311
1	1327	8312
1	1319	8313
1	1305	8314
1	1294	8315
1	1288	8316
1	1292	8317
1	1302	8318
1	1325	8319
1	1350	8320
1	1369	8321
1	1376	8322
1	1384	8323
1	1395	8324
1	1396	8325
1	1384	8326
1	1372	8327
1	1356	8328
1	1343	8329
1	1328	8330
1	1310	8331
1	1293	8332
1	1288	8333
1	1293	8334
1	1319	8335
1	1343	8336
1	1370	8337
1	1399	8338
1	1422	8339
1	1431	8340
1	1437	8341
1	1435	8342
1	1427	8343
1	1416	8344
1	1405	8345
1	1393	8346
1	1391	8347
1	1381	8348
1	1372	8349
1	1364	8350
1	1364	8351
1	1376	8352
1	1404	8353
1	1431	8354
1	1450	8355
1	1461	8356
1	1453	8357
1	1450	8358
1	1441	8359
1	1432	8360
1	1424	8361
1	1424	8362
1	1426	8363
1	1434	8364
1	1445	8365
1	1455	8366
1	1464	8367
1	1464	8368
1	1453	8369
1	1439	8370
1	1424	8371
1	1400	8372
1	1384	8373
1	1380	8374
1	1380	8375
1	1381	8376
1	1384	8377
1	1384	8378
1	1390	8379
1	1392	8380
1	1395	8381
1	1394	8382
1	1398	8383
1	1409	8384
1	1422	8385
1	1437	8386
1	1451	8387
1	1468	8388
1	1485	8389
1	1495	8390
1	1503	8391
1	1517	8392
1	1518	8393
1	1519	8394
1	1518	8395
1	1521	8396
1	1521	8397
1	1521	8398
1	1529	8399
1	1539	8400
1	1550	8401
1	1559	8402
1	1575	8403
1	1581	8404
1	1582	8405
1	1580	8406
1	1575	8407
1	1558	8408
1	1535	8409
1	1503	8410
1	1476	8411
1	1446	8412
1	1418	8413
1	1394	8414
1	1369	8415
1	1356	8416
1	1350	8417
1	1358	8418
1	1372	8419
1	1399	8420
1	1422	8421
1	1446	8422
1	1454	8423
1	1476	8424
1	1489	8425
1	1503	8426
1	1520	8427
1	1535	8428
1	1547	8429
1	1551	8430
1	1542	8431
1	1530	8432
1	1517	8433
1	1507	8434
1	1508	8435
1	1516	8436
1	1520	8437
1	1525	8438
1	1521	8439
1	1518	8440
1	1503	8441
1	1486	8442
1	1466	8443
1	1449	8444
1	1433	8445
1	1423	8446
1	1409	8447
1	1399	8448
1	1391	8449
1	1377	8450
1	1377	8451
1	1392	8452
1	1398	8453
1	1403	8454
1	1409	8455
1	1420	8456
1	1431	8457
1	1441	8458
1	1450	8459
1	1455	8460
1	1455	8461
1	1448	8462
1	1437	8463
1	1425	8464
1	1413	8465
1	1398	8466
1	1393	8467
1	1377	8468
1	1372	8469
1	1371	8470
1	1372	8471
1	1369	8472
1	1363	8473
1	1356	8474
1	1346	8475
1	1338	8476
1	1321	8477
1	1314	8478
1	1306	8479
1	1296	8480
1	1290	8481
1	1289	8482
1	1292	8483
1	1295	8484
1	1304	8485
1	1311	8486
1	1319	8487
1	1319	8488
1	1316	8489
1	1304	8490
1	1293	8491
1	1282	8492
1	1281	8493
1	1284	8494
1	1287	8495
1	1292	8496
1	1293	8497
1	1285	8498
1	1280	8499
1	1272	8500
1	1267	8501
1	1266	8502
1	1266	8503
1	1278	8504
1	1293	8505
1	1310	8506
1	1319	8507
1	1332	8508
1	1341	8509
1	1343	8510
1	1338	8511
1	1332	8512
1	1320	8513
1	1307	8514
1	1295	8515
1	1286	8516
1	1276	8517
1	1271	8518
1	1271	8519
1	1275	8520
1	1278	8521
1	1281	8522
1	1294	8523
1	1313	8524
1	1328	8525
1	1341	8526
1	1347	8527
1	1350	8528
1	1350	8529
1	1347	8530
1	1346	8531
1	1341	8532
1	1337	8533
1	1334	8534
1	1333	8535
1	1332	8536
1	1319	8537
1	1314	8538
1	1310	8539
1	1310	8540
1	1310	8541
1	1318	8542
1	1314	8543
1	1312	8544
1	1319	8545
1	1328	8546
1	1346	8547
1	1366	8548
1	1379	8549
1	1384	8550
1	1384	8551
1	1372	8552
1	1364	8553
1	1355	8554
1	1341	8555
1	1322	8556
1	1315	8557
1	1298	8558
1	1289	8559
1	1283	8560
1	1285	8561
1	1289	8562
1	1294	8563
1	1306	8564
1	1319	8565
1	1341	8566
1	1360	8567
1	1395	8568
1	1422	8569
1	1443	8570
1	1458	8571
1	1469	8572
1	1465	8573
1	1450	8574
1	1436	8575
1	1412	8576
1	1383	8577
1	1359	8578
1	1343	8579
1	1323	8580
1	1308	8581
1	1284	8582
1	1269	8583
1	1265	8584
1	1266	8585
1	1274	8586
1	1287	8587
1	1302	8588
1	1321	8589
1	1338	8590
1	1348	8591
1	1350	8592
1	1348	8593
1	1345	8594
1	1334	8595
1	1328	8596
1	1319	8597
1	1317	8598
1	1319	8599
1	1322	8600
1	1338	8601
1	1363	8602
1	1382	8603
1	1400	8604
1	1414	8605
1	1418	8606
1	1418	8607
1	1413	8608
1	1406	8609
1	1397	8610
1	1384	8611
1	1373	8612
1	1372	8613
1	1377	8614
1	1384	8615
1	1384	8616
1	1377	8617
1	1359	8618
1	1333	8619
1	1310	8620
1	1293	8621
1	1275	8622
1	1267	8623
1	1265	8624
1	1269	8625
1	1293	8626
1	1328	8627
1	1368	8628
1	1406	8629
1	1431	8630
1	1450	8631
1	1469	8632
1	1479	8633
1	1485	8634
1	1490	8635
1	1485	8636
1	1473	8637
1	1456	8638
1	1438	8639
1	1423	8640
1	1401	8641
1	1375	8642
1	1359	8643
1	1350	8644
1	1346	8645
1	1350	8646
1	1373	8647
1	1407	8648
1	1437	8649
1	1459	8650
1	1467	8651
1	1458	8652
1	1437	8653
1	1409	8654
1	1384	8655
1	1370	8656
1	1359	8657
1	1358	8658
1	1357	8659
1	1359	8660
1	1368	8661
1	1383	8662
1	1397	8663
1	1399	8664
1	1398	8665
1	1393	8666
1	1395	8667
1	1400	8668
1	1417	8669
1	1429	8670
1	1441	8671
1	1441	8672
1	1438	8673
1	1428	8674
1	1417	8675
1	1406	8676
1	1409	8677
1	1404	8678
1	1405	8679
1	1409	8680
1	1412	8681
1	1406	8682
1	1406	8683
1	1404	8684
1	1403	8685
1	1405	8686
1	1413	8687
1	1420	8688
1	1425	8689
1	1433	8690
1	1437	8691
1	1442	8692
1	1441	8693
1	1438	8694
1	1438	8695
1	1442	8696
1	1454	8697
1	1467	8698
1	1476	8699
1	1479	8700
1	1481	8701
1	1481	8702
1	1490	8703
1	1502	8704
1	1523	8705
1	1544	8706
1	1574	8707
1	1587	8708
1	1593	8709
1	1589	8710
1	1570	8711
1	1551	8712
1	1529	8713
1	1505	8714
1	1477	8715
1	1449	8716
1	1418	8717
1	1395	8718
1	1372	8719
1	1360	8720
1	1361	8721
1	1376	8722
1	1394	8723
1	1424	8724
1	1450	8725
1	1472	8726
1	1498	8727
1	1526	8728
1	1544	8729
1	1557	8730
1	1566	8731
1	1562	8732
1	1556	8733
1	1548	8734
1	1532	8735
1	1513	8736
1	1487	8737
1	1462	8738
1	1448	8739
1	1445	8740
1	1452	8741
1	1470	8742
1	1492	8743
1	1507	8744
1	1514	8745
1	1503	8746
1	1485	8747
1	1461	8748
1	1440	8749
1	1431	8750
1	1429	8751
1	1437	8752
1	1448	8753
1	1459	8754
1	1474	8755
1	1494	8756
1	1517	8757
1	1536	8758
1	1551	8759
1	1555	8760
1	1555	8761
1	1543	8762
1	1539	8763
1	1542	8764
1	1556	8765
1	1572	8766
1	1584	8767
1	1577	8768
1	1555	8769
1	1524	8770
1	1494	8771
1	1476	8772
1	1469	8773
1	1468	8774
1	1472	8775
1	1482	8776
1	1494	8777
1	1515	8778
1	1537	8779
1	1556	8780
1	1571	8781
1	1589	8782
1	1593	8783
1	1589	8784
1	1575	8785
1	1558	8786
1	1544	8787
1	1528	8788
1	1511	8789
1	1498	8790
1	1485	8791
1	1466	8792
1	1459	8793
1	1450	8794
1	1445	8795
1	1439	8796
1	1444	8797
1	1450	8798
1	1461	8799
1	1476	8800
1	1494	8801
1	1512	8802
1	1529	8803
1	1546	8804
1	1561	8805
1	1579	8806
1	1591	8807
1	1613	8808
1	1644	8809
1	1682	8810
1	1721	8811
1	1764	8812
1	1791	8813
1	1814	8814
1	1838	8815
1	1865	8816
1	1898	8817
1	1937	8818
1	1978	8819
1	2022	8820
1	2053	8821
1	2077	8822
1	2105	8823
1	2127	8824
1	2148	8825
1	2160	8826
1	2179	8827
1	2189	8828
1	2205	8829
1	2209	8830
1	2201	8831
1	2183	8832
1	2153	8833
1	2105	8834
1	2043	8835
1	1962	8836
1	1873	8837
1	1778	8838
1	1686	8839
1	1595	8840
1	1516	8841
1	1458	8842
1	1406	8843
1	1364	8844
1	1341	8845
1	1328	8846
1	1320	8847
1	1321	8848
1	1332	8849
1	1348	8850
1	1373	8851
1	1402	8852
1	1433	8853
1	1464	8854
1	1495	8855
1	1530	8856
1	1569	8857
1	1605	8858
1	1632	8859
1	1646	8860
1	1657	8861
1	1660	8862
1	1664	8863
1	1667	8864
1	1667	8865
1	1665	8866
1	1660	8867
1	1660	8868
1	1656	8869
1	1652	8870
1	1647	8871
1	1647	8872
1	1646	8873
1	1643	8874
1	1643	8875
1	1646	8876
1	1655	8877
1	1668	8878
1	1686	8879
1	1705	8880
1	1724	8881
1	1737	8882
1	1752	8883
1	1767	8884
1	1788	8885
1	1801	8886
1	1818	8887
1	1827	8888
1	1832	8889
1	1827	8890
1	1822	8891
1	1817	8892
1	1808	8893
1	1791	8894
1	1779	8895
1	1765	8896
1	1751	8897
1	1739	8898
1	1724	8899
1	1706	8900
1	1693	8901
1	1695	8902
1	1700	8903
1	1712	8904
1	1730	8905
1	1742	8906
1	1757	8907
1	1769	8908
1	1787	8909
1	1801	8910
1	1815	8911
1	1817	8912
1	1817	8913
1	1813	8914
1	1808	8915
1	1815	8916
1	1832	8917
1	1846	8918
1	1866	8919
1	1891	8940
1	1896	8941
1	1897	8942
1	1906	8943
1	1911	8944
1	1923	8945
1	1935	8946
1	1955	8947
1	1963	8948
1	1970	8949
1	1974	8950
1	1980	8951
1	1983	8952
1	1982	8953
1	1978	8954
1	1973	8955
1	1968	8956
1	1953	8957
1	1945	8958
1	1935	8959
1	1877	8920
1	1873	8921
1	1867	8922
1	1851	8923
1	1839	8924
1	1826	8925
1	1814	8926
1	1795	8927
1	1782	8928
1	1764	8929
1	1757	8930
1	1753	8931
1	1756	8932
1	1766	8933
1	1777	8934
1	1795	8935
1	1818	8936
1	1842	8937
1	1864	8938
1	1880	8939
1	1922	8960
1	1908	8961
1	1900	8962
1	1894	8963
1	1887	8964
1	1883	8965
1	1890	8966
1	1898	8967
1	1914	8968
1	1922	8969
1	1929	8970
1	1934	8971
1	1927	8972
1	1929	8973
1	1940	8974
1	1958	8975
1	1980	8976
1	2014	8977
1	2038	8978
1	2052	8979
1	2054	8980
1	2049	8981
1	2037	8982
1	2023	8983
1	2009	8984
1	1997	8985
1	1991	8986
1	1983	8987
1	1987	8988
1	1993	8989
1	2004	8990
1	2024	8991
1	2052	8992
1	2070	8993
1	2084	8994
1	2094	8995
1	2097	8996
1	2098	8997
1	2099	8998
1	2100	8999
1	2093	9000
1	2088	9001
1	2075	9002
1	2063	9003
1	2052	9004
1	2042	9005
1	2036	9006
1	2048	9007
1	2055	9008
1	2069	9009
1	2078	9010
1	2084	9011
1	2092	9012
1	2099	9013
1	2096	9014
1	2099	9015
1	2105	9016
1	2108	9017
1	2119	9018
1	2127	9019
1	2129	9020
1	2122	9021
1	2131	9022
1	2130	9023
1	2140	9024
1	2147	9025
1	2146	9026
1	2150	9027
1	2147	9028
1	2143	9029
1	2143	9030
1	2143	9031
1	2147	9032
1	2152	9033
1	2156	9034
1	2157	9035
1	2146	9036
1	2124	9037
1	2101	9038
1	2084	9039
1	2078	9040
1	2086	9041
1	2090	9042
1	2103	9043
1	2118	9044
1	2140	9045
1	2161	9046
1	2175	9047
1	2186	9048
1	2197	9049
1	2201	9050
1	2210	9051
1	2215	9052
1	2234	9053
1	2237	9054
1	2236	9055
1	2233	9056
1	2221	9057
1	2210	9058
1	2196	9059
1	2183	9060
1	2168	9061
1	2150	9062
1	2132	9063
1	2115	9064
1	2103	9065
1	2090	9066
1	2093	9067
1	2095	9068
1	2106	9069
1	2115	9070
1	2125	9071
1	2131	9072
1	2136	9073
1	2133	9074
1	2129	9075
1	2117	9076
1	2097	9077
1	2078	9078
1	2055	9079
1	2032	9080
1	2013	9081
1	2001	9082
1	1998	9083
1	1994	9084
1	2000	9085
1	2014	9086
1	2030	9087
1	2041	9088
1	2048	9089
1	2048	9090
1	2050	9091
1	2049	9092
1	2062	9093
1	2081	9094
1	2102	9095
1	2115	9096
1	2131	9097
1	2138	9098
1	2144	9099
1	2142	9100
1	2131	9101
1	2111	9102
1	2084	9103
1	2063	9104
1	2043	9105
1	2028	9106
1	2015	9107
1	2018	9108
1	2026	9109
1	2040	9110
1	2052	9111
1	2068	9112
1	2079	9113
1	2084	9114
1	2088	9115
1	2088	9116
1	2089	9117
1	2088	9118
1	2085	9119
1	2009	9140
1	2017	9141
1	2027	9142
1	2027	9143
1	2030	9144
1	2035	9145
1	2047	9146
1	2057	9147
1	2077	9148
1	2089	9149
1	2102	9150
1	2113	9151
1	2117	9152
1	2118	9153
1	2118	9154
1	2110	9155
1	2104	9156
1	2106	9157
1	2106	9158
1	2104	9159
1	2079	9120
1	2078	9121
1	2067	9122
1	2065	9123
1	2052	9124
1	2040	9125
1	2029	9126
1	2025	9127
1	2017	9128
1	2013	9129
1	2011	9130
1	2003	9131
1	1994	9132
1	1985	9133
1	1979	9134
1	1976	9135
1	1976	9136
1	1976	9137
1	1986	9138
1	1998	9139
1	2101	9160
1	2094	9161
1	2091	9162
1	2090	9163
1	2088	9164
1	2093	9165
1	2104	9166
1	2105	9167
1	2116	9168
1	2120	9169
1	2124	9170
1	2121	9171
1	2131	9172
1	2131	9173
1	2128	9174
1	2116	9175
1	2102	9176
1	2083	9177
1	2071	9178
1	2062	9179
1	2048	9180
1	2034	9181
1	2028	9182
1	2026	9183
1	2026	9184
1	2030	9185
1	2041	9186
1	2061	9187
1	2076	9188
1	2090	9189
1	2105	9190
1	2117	9191
1	2128	9192
1	2129	9193
1	2130	9194
1	2129	9195
1	2130	9196
1	2117	9197
1	2102	9198
1	2084	9199
1	2075	9200
1	2071	9201
1	2079	9202
1	2087	9203
1	2097	9204
1	2109	9205
1	2118	9206
1	2120	9207
1	2114	9208
1	2103	9209
1	2092	9210
1	2083	9211
1	2076	9212
1	2076	9213
1	2079	9214
1	2086	9215
1	2094	9216
1	2111	9217
1	2130	9218
1	2150	9219
1	2170	9220
1	2186	9221
1	2188	9222
1	2186	9223
1	2181	9224
1	2168	9225
1	2153	9226
1	2131	9227
1	2114	9228
1	2101	9229
1	2093	9230
1	2084	9231
1	2084	9232
1	2081	9233
1	2084	9234
1	2093	9235
1	2097	9236
1	2097	9237
1	2102	9238
1	2105	9239
1	2106	9240
1	2112	9241
1	2113	9242
1	2119	9243
1	2127	9244
1	2131	9245
1	2138	9246
1	2156	9247
1	2156	9248
1	2147	9249
1	2139	9250
1	2131	9251
1	2123	9252
1	2115	9253
1	2105	9254
1	2105	9255
1	2106	9256
1	2101	9257
1	2096	9258
1	2096	9259
1	2092	9260
1	2088	9261
1	2093	9262
1	2097	9263
1	2106	9264
1	2118	9265
1	2131	9266
1	2135	9267
1	2135	9268
1	2129	9269
1	2119	9270
1	2114	9271
1	2102	9272
1	2096	9273
1	2084	9274
1	2078	9275
1	2070	9276
1	2074	9277
1	2070	9278
1	2066	9279
1	2051	9280
1	2047	9281
1	2039	9282
1	2039	9283
1	2048	9284
1	2066	9285
1	2096	9286
1	2122	9287
1	2154	9288
1	2179	9289
1	2204	9290
1	2233	9291
1	2260	9292
1	2270	9293
1	2277	9294
1	2281	9295
1	2281	9296
1	2279	9297
1	2273	9298
1	2262	9299
1	2237	9300
1	2210	9301
1	2175	9302
1	2156	9303
1	2141	9304
1	2133	9305
1	2143	9306
1	2165	9307
1	2181	9308
1	2188	9309
1	2189	9310
1	2188	9311
1	2183	9312
1	2179	9313
1	2175	9314
1	2179	9315
1	2183	9316
1	2175	9317
1	2170	9318
1	2161	9319
1	2157	9320
1	2148	9321
1	2147	9322
1	2129	9323
1	2122	9324
1	2096	9325
1	2081	9326
1	2066	9327
1	2054	9328
1	2052	9329
1	2056	9330
1	2063	9331
1	2075	9332
1	2090	9333
1	2107	9334
1	2125	9335
1	2137	9336
1	2155	9337
1	2156	9338
1	2156	9339
1	2160	9340
1	2159	9341
1	2152	9342
1	2140	9343
1	2118	9344
1	2102	9345
1	2089	9346
1	2071	9347
1	2063	9348
1	2056	9349
1	2052	9350
1	2052	9351
1	2052	9352
1	2052	9353
1	2057	9354
1	2064	9355
1	2070	9356
1	2079	9357
1	2087	9358
1	2092	9359
1	2065	9380
1	2053	9381
1	2048	9382
1	2034	9383
1	2030	9384
1	2035	9385
1	2047	9386
1	2057	9387
1	2075	9388
1	2087	9389
1	2099	9390
1	2111	9391
1	2117	9392
1	2122	9393
1	2122	9394
1	2122	9395
1	2124	9396
1	2114	9397
1	2101	9398
1	2084	9399
1	2093	9360
1	2097	9361
1	2100	9362
1	2105	9363
1	2106	9364
1	2109	9365
1	2115	9366
1	2129	9367
1	2140	9368
1	2144	9369
1	2145	9370
1	2139	9371
1	2123	9372
1	2107	9373
1	2097	9374
1	2093	9375
1	2091	9376
1	2082	9377
1	2079	9378
1	2075	9379
1	2074	9400
1	2061	9401
1	2052	9402
1	2043	9403
1	2034	9404
1	2026	9405
1	2019	9406
1	2002	9407
1	1999	9408
1	2000	9409
1	2015	9410
1	2047	9411
1	2088	9412
1	2131	9413
1	2175	9414
1	2210	9415
1	2253	9416
1	2294	9417
1	2351	9418
1	2412	9419
1	2480	9420
1	2519	9421
1	2545	9422
1	2568	9423
1	2580	9424
1	2585	9425
1	2591	9426
1	2597	9427
1	2604	9428
1	2622	9429
1	2633	9430
1	2639	9431
1	2641	9432
1	2631	9433
1	2609	9434
1	2575	9435
1	2524	9436
1	2457	9437
1	2371	9438
1	2286	9439
1	2197	9440
1	2118	9441
1	2052	9442
1	1986	9443
1	1925	9444
1	1881	9445
1	1850	9446
1	1832	9447
1	1817	9448
1	1802	9449
1	1796	9450
1	1793	9451
1	1787	9452
1	1785	9453
1	1786	9454
1	1790	9455
1	1796	9456
1	1816	9457
1	1826	9458
1	1842	9459
1	1850	9460
1	1863	9461
1	1882	9462
1	1913	9463
1	1957	9464
1	2001	9465
1	2043	9466
1	2076	9467
1	2109	9468
1	2133	9469
1	2146	9470
1	2148	9471
1	2156	9472
1	2148	9473
1	2135	9474
1	2118	9475
1	2100	9476
1	2071	9477
1	2041	9478
1	2014	9479
1	1989	9480
1	1974	9481
1	1970	9482
1	1970	9483
1	1970	9484
1	1970	9485
1	1972	9486
1	1983	9487
1	1988	9488
1	1991	9489
1	2001	9490
1	2014	9491
1	2028	9492
1	2040	9493
1	2049	9494
1	2050	9495
1	2048	9496
1	2036	9497
1	2032	9498
1	2034	9499
1	2039	9500
1	2048	9501
1	2063	9502
1	2068	9503
1	2070	9504
1	2070	9505
1	2066	9506
1	2053	9507
1	2038	9508
1	2022	9509
1	2010	9510
1	2003	9511
1	2000	9512
1	2000	9513
1	2000	9514
1	1994	9515
1	1986	9516
1	1985	9517
1	1982	9518
1	1987	9519
1	1999	9520
1	2011	9521
1	2025	9522
1	2048	9523
1	2077	9524
1	2106	9525
1	2127	9526
1	2131	9527
1	2119	9528
1	2102	9529
1	2079	9530
1	2051	9531
1	2017	9532
1	1982	9533
1	1957	9534
1	1939	9535
1	1937	9536
1	1937	9537
1	1948	9538
1	1971	9539
1	1946	9560
1	1962	9561
1	1988	9562
1	2004	9563
1	2025	9564
1	2051	9565
1	2079	9566
1	2110	9567
1	2135	9568
1	2150	9569
1	2155	9570
1	2147	9571
1	2124	9572
1	2097	9573
1	2075	9574
1	2052	9575
1	2031	9576
1	2026	9577
1	2013	9578
1	2003	9579
1	1996	9540
1	2026	9541
1	2047	9542
1	2070	9543
1	2088	9544
1	2104	9545
1	2114	9546
1	2126	9547
1	2128	9548
1	2116	9549
1	2094	9550
1	2063	9551
1	2025	9552
1	1985	9553
1	1952	9554
1	1934	9555
1	1926	9556
1	1922	9557
1	1924	9558
1	1933	9559
1	2145	9600
1	2147	9601
1	2137	9602
1	2131	9603
1	2128	9604
1	2122	9605
1	2110	9606
1	2103	9607
1	2079	9608
1	2065	9609
1	2048	9610
1	2034	9611
1	2030	9612
1	2037	9613
1	2051	9614
1	2066	9615
1	2081	9616
1	2087	9617
1	2088	9618
1	2079	9619
1	1987	9580
1	1984	9581
1	1974	9582
1	1963	9583
1	1959	9584
1	1958	9585
1	1957	9586
1	1949	9587
1	1949	9588
1	1948	9589
1	1948	9590
1	1952	9591
1	1972	9592
1	1994	9593
1	2021	9594
1	2048	9595
1	2075	9596
1	2104	9597
1	2124	9598
1	2139	9599
1	2065	9620
1	2052	9621
1	2052	9622
1	2053	9623
1	2063	9624
1	2063	9625
1	2066	9626
1	2070	9627
1	2078	9628
1	2079	9629
1	2076	9630
1	2066	9631
1	2057	9632
1	2043	9633
1	2022	9634
1	1999	9635
1	1974	9636
1	1955	9637
1	1942	9638
1	1927	9639
1	1922	9640
1	1919	9641
1	1913	9642
1	1914	9643
1	1922	9644
1	1935	9645
1	1948	9646
1	1958	9647
1	1975	9648
1	1998	9649
1	2013	9650
1	2021	9651
1	2027	9652
1	2025	9653
1	2018	9654
1	2016	9655
1	2012	9656
1	2003	9657
1	1991	9658
1	1979	9659
1	1843	9680
1	1822	9681
1	1814	9682
1	1793	9683
1	1783	9684
1	1780	9685
1	1778	9686
1	1785	9687
1	1792	9688
1	1814	9689
1	1832	9690
1	1854	9691
1	1861	9692
1	1858	9693
1	1838	9694
1	1796	9695
1	1757	9696
1	1736	9697
1	1710	9698
1	1697	9699
1	1965	9660
1	1948	9661
1	1922	9662
1	1904	9663
1	1895	9664
1	1893	9665
1	1896	9666
1	1914	9667
1	1929	9668
1	1948	9669
1	1962	9670
1	1974	9671
1	1978	9672
1	1972	9673
1	1967	9674
1	1946	9675
1	1922	9676
1	1895	9677
1	1875	9678
1	1860	9679
1	1687	9700
1	1685	9701
1	1685	9702
1	1684	9703
1	1686	9704
1	1686	9705
1	1677	9706
1	1656	9707
1	1645	9708
1	1635	9709
1	1634	9710
1	1639	9711
1	1651	9712
1	1660	9713
1	1668	9714
1	1676	9715
1	1673	9716
1	1661	9717
1	1652	9718
1	1646	9719
1	1646	9720
1	1652	9721
1	1661	9722
1	1679	9723
1	1691	9724
1	1701	9725
1	1708	9726
1	1703	9727
1	1699	9728
1	1692	9729
1	1687	9730
1	1688	9731
1	1677	9732
1	1661	9733
1	1647	9734
1	1634	9735
1	1620	9736
1	1602	9737
1	1588	9738
1	1580	9739
1	1571	9740
1	1563	9741
1	1556	9742
1	1545	9743
1	1537	9744
1	1529	9745
1	1530	9746
1	1544	9747
1	1564	9748
1	1589	9749
1	1616	9750
1	1635	9751
1	1636	9752
1	1637	9753
1	1634	9754
1	1629	9755
1	1618	9756
1	1608	9757
1	1593	9758
1	1581	9759
1	1571	9760
1	1562	9761
1	1552	9762
1	1541	9763
1	1537	9764
1	1539	9765
1	1551	9766
1	1558	9767
1	1577	9768
1	1591	9769
1	1605	9770
1	1615	9771
1	1633	9772
1	1641	9773
1	1647	9774
1	1647	9775
1	1638	9776
1	1629	9777
1	1615	9778
1	1595	9779
1	1581	9780
1	1573	9781
1	1567	9782
1	1568	9783
1	1573	9784
1	1577	9785
1	1572	9786
1	1572	9787
1	1569	9788
1	1567	9789
1	1574	9790
1	1582	9791
1	1593	9792
1	1602	9793
1	1602	9794
1	1596	9795
1	1592	9796
1	1581	9797
1	1577	9798
1	1573	9799
1	1567	9800
1	1562	9801
1	1561	9802
1	1555	9803
1	1546	9804
1	1542	9805
1	1542	9806
1	1548	9807
1	1557	9808
1	1564	9809
1	1566	9810
1	1564	9811
1	1555	9812
1	1544	9813
1	1536	9814
1	1527	9815
1	1514	9816
1	1503	9817
1	1486	9818
1	1467	9819
1	1448	9820
1	1428	9821
1	1413	9822
1	1413	9823
1	1424	9824
1	1446	9825
1	1476	9826
1	1503	9827
1	1532	9828
1	1548	9829
1	1554	9830
1	1555	9831
1	1555	9832
1	1544	9833
1	1531	9834
1	1526	9835
1	1521	9836
1	1503	9837
1	1482	9838
1	1464	9839
1	1520	9860
1	1481	9861
1	1452	9862
1	1428	9863
1	1413	9864
1	1406	9865
1	1404	9866
1	1410	9867
1	1425	9868
1	1446	9869
1	1465	9870
1	1477	9871
1	1489	9872
1	1502	9873
1	1504	9874
1	1501	9875
1	1492	9876
1	1487	9877
1	1474	9878
1	1456	9879
1	1449	9840
1	1437	9841
1	1424	9842
1	1422	9843
1	1424	9844
1	1427	9845
1	1436	9846
1	1450	9847
1	1466	9848
1	1481	9849
1	1503	9850
1	1529	9851
1	1555	9852
1	1581	9853
1	1604	9854
1	1622	9855
1	1634	9856
1	1621	9857
1	1597	9858
1	1559	9859
1	1445	9880
1	1442	9881
1	1441	9882
1	1436	9883
1	1422	9884
1	1402	9885
1	1377	9886
1	1351	9887
1	1333	9888
1	1320	9889
1	1318	9890
1	1321	9891
1	1339	9892
1	1357	9893
1	1377	9894
1	1399	9895
1	1418	9896
1	1430	9897
1	1439	9898
1	1448	9899
1	1449	9900
1	1450	9901
1	1448	9902
1	1447	9903
1	1450	9904
1	1454	9905
1	1460	9906
1	1463	9907
1	1458	9908
1	1456	9909
1	1462	9910
1	1464	9911
1	1464	9912
1	1462	9913
1	1463	9914
1	1469	9915
1	1476	9916
1	1477	9917
1	1485	9918
1	1485	9919
1	1476	9920
1	1455	9921
1	1440	9922
1	1417	9923
1	1407	9924
1	1398	9925
1	1396	9926
1	1399	9927
1	1412	9928
1	1424	9929
1	1436	9930
1	1441	9931
1	1448	9932
1	1449	9933
1	1449	9934
1	1442	9935
1	1437	9936
1	1430	9937
1	1424	9938
1	1410	9939
1	1409	9940
1	1405	9941
1	1384	9942
1	1371	9943
1	1362	9944
1	1353	9945
1	1346	9946
1	1332	9947
1	1323	9948
1	1315	9949
1	1305	9950
1	1293	9951
1	1293	9952
1	1294	9953
1	1304	9954
1	1307	9955
1	1308	9956
1	1304	9957
1	1298	9958
1	1293	9959
1	1293	9960
1	1297	9961
1	1296	9962
1	1306	9963
1	1323	9964
1	1345	9965
1	1366	9966
1	1392	9967
1	1403	9968
1	1409	9969
1	1409	9970
1	1398	9971
1	1391	9972
1	1379	9973
1	1377	9974
1	1375	9975
1	1374	9976
1	1372	9977
1	1370	9978
1	1369	9979
1	1364	9980
1	1350	9981
1	1337	9982
1	1312	9983
1	1293	9984
1	1276	9985
1	1268	9986
1	1272	9987
1	1278	9988
1	1283	9989
1	1285	9990
1	1289	9991
1	1281	9992
1	1279	9993
1	1278	9994
1	1276	9995
1	1280	9996
1	1293	9997
1	1304	9998
1	1319	9999
1	1337	10000
1	1351	10001
1	1357	10002
1	1344	10003
1	1319	10004
1	1298	10005
1	1284	10006
1	1273	10007
1	1269	10008
1	1267	10009
1	1259	10010
1	1244	10011
1	1237	10012
1	1225	10013
1	1217	10014
1	1215	10015
1	1215	10016
1	1227	10017
1	1240	10018
1	1254	10019
1	1267	10020
1	1278	10021
1	1280	10022
1	1292	10023
1	1305	10024
1	1319	10025
1	1332	10026
1	1349	10027
1	1372	10028
1	1405	10029
1	1446	10030
1	1503	10031
1	1557	10032
1	1620	10033
1	1678	10034
1	1729	10035
1	1769	10036
1	1792	10037
1	1823	10038
1	1843	10039
1	1856	10040
1	1868	10041
1	1879	10042
1	1888	10043
1	1895	10044
1	1893	10045
1	1880	10046
1	1865	10047
1	1843	10048
1	1814	10049
1	1762	10050
1	1705	10051
1	1628	10052
1	1539	10053
1	1441	10054
1	1336	10055
1	1237	10056
1	1147	10057
1	1071	10058
1	1017	10059
1	979	10060
1	964	10061
1	972	10062
1	979	10063
1	988	10064
1	1005	10065
1	1021	10066
1	1035	10067
1	1058	10068
1	1076	10069
1	1097	10070
1	1114	10071
1	1136	10072
1	1148	10073
1	1162	10074
1	1177	10075
1	1197	10076
1	1215	10077
1	1233	10078
1	1249	10079
1	1263	10080
1	1266	10081
1	1269	10082
1	1277	10083
1	1276	10084
1	1269	10085
1	1266	10086
1	1268	10087
1	1277	10088
1	1287	10089
1	1299	10090
1	1309	10091
1	1310	10092
1	1304	10093
