#Date:= 2024-10-01T15:09:31.665512
#Sampling Rate(Hz):= 1000
#Labels:= LOD	ECG	TS
1	128	20
1	128	21
1	128	22
1	128	23
1	128	24
1	1677	25
1	1688	26
1	1694	27
1	1686	28
1	1664	29
1	1634	30
1	1605	31
1	1575	32
1	1547	33
1	1515	34
1	1497	35
1	1485	36
1	1476	37
1	1468	38
1	1456	39
1	1557	60
1	1569	61
1	1576	62
1	1574	63
1	1553	64
1	1521	65
1	1480	66
1	1439	67
1	1402	68
1	1381	69
1	1367	70
1	1359	71
1	1359	72
1	1368	73
1	1377	74
1	1392	75
1	1398	76
1	1402	77
1	1419	78
1	1437	79
1	1436	40
1	1417	41
1	1405	42
1	1404	43
1	1409	44
1	1409	45
1	1409	46
1	1414	47
1	1424	48
1	1428	49
1	1433	50
1	1429	51
1	1426	52
1	1427	53
1	1432	54
1	1437	55
1	1459	56
1	1490	57
1	1518	58
1	1541	59
1	1459	80
1	1477	81
1	1481	82
1	1476	83
1	1481	84
1	1485	85
1	1493	86
1	1501	87
1	1501	88
1	1489	89
1	1481	90
1	1484	91
1	1491	92
1	1494	93
1	1487	94
1	1478	95
1	1474	96
1	1470	97
1	1463	98
1	1460	99
1	1453	100
1	1445	101
1	1426	102
1	1402	103
1	1372	104
1	1347	105
1	1323	106
1	1302	107
1	1292	108
1	1294	109
1	1323	110
1	1356	111
1	1384	112
1	1410	113
1	1431	114
1	1450	115
1	1467	116
1	1481	117
1	1499	118
1	1505	119
1	1504	120
1	1492	121
1	1481	122
1	1476	123
1	1466	124
1	1454	125
1	1442	126
1	1436	127
1	1426	128
1	1435	129
1	1447	130
1	1471	131
1	1512	132
1	1544	133
1	1581	134
1	1615	135
1	1646	136
1	1672	137
1	1693	138
1	1708	139
1	1731	140
1	1755	141
1	1782	142
1	1817	143
1	1849	144
1	1873	145
1	1893	146
1	1908	147
1	1913	148
1	1909	149
1	1890	150
1	1863	151
1	1837	152
1	1793	153
1	1755	154
1	1714	155
1	1668	156
1	1621	157
1	1566	158
1	1504	159
1	1430	160
1	1349	161
1	1280	162
1	1217	163
1	1175	164
1	1148	165
1	1141	166
1	1158	167
1	1188	168
1	1219	169
1	1252	170
1	1280	171
1	1305	172
1	1332	173
1	1363	174
1	1382	175
1	1398	176
1	1399	177
1	1390	178
1	1371	179
1	1350	180
1	1331	181
1	1304	182
1	1278	183
1	1247	184
1	1225	185
1	1209	186
1	1211	187
1	1229	188
1	1259	189
1	1295	190
1	1330	191
1	1364	192
1	1395	193
1	1419	194
1	1437	195
1	1450	196
1	1462	197
1	1455	198
1	1430	199
1	1384	200
1	1334	201
1	1292	202
1	1256	203
1	1232	204
1	1207	205
1	1188	206
1	1170	207
1	1158	208
1	1150	209
1	1161	210
1	1190	211
1	1240	212
1	1282	213
1	1312	214
1	1341	215
1	1371	216
1	1398	217
1	1400	218
1	1384	219
1	1361	220
1	1334	221
1	1305	222
1	1276	223
1	1252	224
1	1232	225
1	1225	226
1	1226	227
1	1236	228
1	1245	229
1	1271	230
1	1293	231
1	1310	232
1	1328	233
1	1346	234
1	1357	235
1	1369	236
1	1384	237
1	1395	238
1	1395	239
1	1374	240
1	1348	241
1	1319	242
1	1285	243
1	1251	244
1	1233	245
1	1227	246
1	1229	247
1	1241	248
1	1263	249
1	1278	250
1	1292	251
1	1315	252
1	1322	253
1	1328	254
1	1338	255
1	1346	256
1	1359	257
1	1364	258
1	1369	259
1	1371	260
1	1372	261
1	1368	262
1	1337	263
1	1296	264
1	1249	265
1	1207	266
1	1168	267
1	1141	268
1	1136	269
1	1151	270
1	1183	271
1	1229	272
1	1275	273
1	1305	274
1	1324	275
1	1335	276
1	1330	277
1	1314	278
1	1302	279
1	1293	280
1	1302	281
1	1319	282
1	1325	283
1	1313	284
1	1290	285
1	1267	286
1	1250	287
1	1243	288
1	1255	289
1	1277	290
1	1300	291
1	1318	292
1	1334	293
1	1355	294
1	1374	295
1	1401	296
1	1427	297
1	1456	298
1	1476	299
1	1478	300
1	1465	301
1	1437	302
1	1402	303
1	1360	304
1	1333	305
1	1313	306
1	1288	307
1	1266	308
1	1245	309
1	1233	310
1	1229	311
1	1230	312
1	1228	313
1	1217	314
1	1214	315
1	1220	316
1	1239	317
1	1263	318
1	1283	319
1	1305	320
1	1328	321
1	1341	322
1	1346	323
1	1364	324
1	1381	325
1	1398	326
1	1402	327
1	1402	328
1	1397	329
1	1397	330
1	1398	331
1	1404	332
1	1423	333
1	1437	334
1	1454	335
1	1476	336
1	1488	337
1	1499	338
1	1503	339
1	1508	340
1	1502	341
1	1491	342
1	1476	343
1	1452	344
1	1436	345
1	1423	346
1	1409	347
1	1395	348
1	1373	349
1	1371	350
1	1373	351
1	1384	352
1	1395	353
1	1398	354
1	1400	355
1	1400	356
1	1405	357
1	1420	358
1	1438	359
1	1461	360
1	1482	361
1	1495	362
1	1503	363
1	1501	364
1	1501	365
1	1503	366
1	1503	367
1	1508	368
1	1512	369
1	1502	370
1	1494	371
1	1498	372
1	1503	373
1	1503	374
1	1495	375
1	1475	376
1	1445	377
1	1417	378
1	1380	379
1	1489	400
1	1481	401
1	1476	402
1	1476	403
1	1486	404
1	1502	405
1	1506	406
1	1502	407
1	1475	408
1	1433	409
1	1394	410
1	1347	411
1	1299	412
1	1259	413
1	1236	414
1	1215	415
1	1200	416
1	1195	417
1	1202	418
1	1215	419
1	1364	380
1	1351	381
1	1346	382
1	1343	383
1	1345	384
1	1341	385
1	1336	386
1	1332	387
1	1328	388
1	1318	389
1	1303	390
1	1300	391
1	1319	392
1	1340	393
1	1361	394
1	1384	395
1	1417	396
1	1437	397
1	1458	398
1	1481	399
1	1188	440
1	1175	441
1	1165	442
1	1168	443
1	1184	444
1	1194	445
1	1206	446
1	1219	447
1	1217	448
1	1211	449
1	1198	450
1	1188	451
1	1177	452
1	1167	453
1	1175	454
1	1185	455
1	1200	456
1	1216	457
1	1235	458
1	1241	459
1	1220	420
1	1222	421
1	1220	422
1	1217	423
1	1207	424
1	1202	425
1	1203	426
1	1201	427
1	1196	428
1	1209	429
1	1215	430
1	1223	431
1	1230	432
1	1227	433
1	1230	434
1	1232	435
1	1229	436
1	1225	437
1	1221	438
1	1206	439
1	1228	460
1	1211	461
1	1188	462
1	1171	463
1	1152	464
1	1136	465
1	1121	466
1	1108	467
1	1098	468
1	1085	469
1	1084	470
1	1084	471
1	1100	472
1	1123	473
1	1153	474
1	1175	475
1	1193	476
1	1225	477
1	1267	478
1	1305	479
1	1173	500
1	1172	501
1	1174	502
1	1175	503
1	1182	504
1	1188	505
1	1200	506
1	1215	507
1	1233	508
1	1246	509
1	1261	510
1	1280	511
1	1302	512
1	1323	513
1	1340	514
1	1356	515
1	1372	516
1	1384	517
1	1380	518
1	1371	519
1	1344	480
1	1368	481
1	1373	482
1	1371	483
1	1346	484
1	1321	485
1	1294	486
1	1267	487
1	1233	488
1	1212	489
1	1188	490
1	1175	491
1	1171	492
1	1174	493
1	1176	494
1	1173	495
1	1167	496
1	1171	497
1	1175	498
1	1174	499
1	1357	520
1	1342	521
1	1325	522
1	1307	523
1	1281	524
1	1247	525
1	1227	526
1	1209	527
1	1202	528
1	1204	529
1	1207	530
1	1207	531
1	1211	532
1	1215	533
1	1219	534
1	1227	535
1	1238	536
1	1256	537
1	1267	538
1	1266	539
1	1250	540
1	1233	541
1	1214	542
1	1189	543
1	1166	544
1	1152	545
1	1150	546
1	1164	547
1	1186	548
1	1199	549
1	1197	550
1	1189	551
1	1183	552
1	1179	553
1	1186	554
1	1188	555
1	1202	556
1	1219	557
1	1233	558
1	1251	559
1	1269	560
1	1282	561
1	1284	562
1	1278	563
1	1270	564
1	1256	565
1	1242	566
1	1239	567
1	1229	568
1	1220	569
1	1215	570
1	1211	571
1	1204	572
1	1202	573
1	1201	574
1	1211	575
1	1228	576
1	1252	577
1	1283	578
1	1316	579
1	1338	580
1	1355	581
1	1364	582
1	1361	583
1	1359	584
1	1346	585
1	1336	586
1	1320	587
1	1306	588
1	1293	589
1	1293	590
1	1301	591
1	1307	592
1	1312	593
1	1319	594
1	1328	595
1	1341	596
1	1340	597
1	1332	598
1	1319	599
1	1315	600
1	1318	601
1	1328	602
1	1333	603
1	1331	604
1	1322	605
1	1318	606
1	1314	607
1	1307	608
1	1305	609
1	1301	610
1	1299	611
1	1301	612
1	1306	613
1	1314	614
1	1321	615
1	1337	616
1	1358	617
1	1369	618
1	1367	619
1	1358	620
1	1345	621
1	1332	622
1	1322	623
1	1319	624
1	1319	625
1	1332	626
1	1346	627
1	1355	628
1	1354	629
1	1369	630
1	1405	631
1	1442	632
1	1464	633
1	1467	634
1	1461	635
1	1449	636
1	1436	637
1	1427	638
1	1419	639
1	1400	640
1	1384	641
1	1376	642
1	1377	643
1	1392	644
1	1411	645
1	1436	646
1	1454	647
1	1462	648
1	1454	649
1	1450	650
1	1445	651
1	1446	652
1	1454	653
1	1472	654
1	1485	655
1	1494	656
1	1490	657
1	1490	658
1	1500	659
1	1503	660
1	1495	661
1	1481	662
1	1464	663
1	1437	664
1	1424	665
1	1403	666
1	1372	667
1	1338	668
1	1312	669
1	1289	670
1	1278	671
1	1269	672
1	1265	673
1	1267	674
1	1271	675
1	1279	676
1	1292	677
1	1310	678
1	1336	679
1	1371	680
1	1404	681
1	1435	682
1	1459	683
1	1482	684
1	1490	685
1	1490	686
1	1490	687
1	1482	688
1	1476	689
1	1475	690
1	1476	691
1	1478	692
1	1476	693
1	1477	694
1	1486	695
1	1492	696
1	1499	697
1	1500	698
1	1502	699
1	1502	700
1	1500	701
1	1491	702
1	1485	703
1	1475	704
1	1458	705
1	1439	706
1	1430	707
1	1431	708
1	1436	709
1	1449	710
1	1455	711
1	1451	712
1	1448	713
1	1453	714
1	1454	715
1	1454	716
1	1453	717
1	1450	718
1	1450	719
1	1623	740
1	1622	741
1	1607	742
1	1581	743
1	1544	744
1	1517	745
1	1487	746
1	1469	747
1	1450	748
1	1435	749
1	1422	750
1	1409	751
1	1393	752
1	1364	753
1	1347	754
1	1332	755
1	1313	756
1	1289	757
1	1271	758
1	1269	759
1	1273	760
1	1280	761
1	1301	762
1	1321	763
1	1338	764
1	1350	765
1	1359	766
1	1368	767
1	1374	768
1	1382	769
1	1398	770
1	1413	771
1	1429	772
1	1443	773
1	1463	774
1	1478	775
1	1489	776
1	1494	777
1	1491	778
1	1485	779
1	1458	720
1	1471	721
1	1461	722
1	1435	723
1	1391	724
1	1347	725
1	1319	726
1	1292	727
1	1277	728
1	1286	729
1	1292	730
1	1307	731
1	1352	732
1	1407	733
1	1472	734
1	1525	735
1	1566	736
1	1593	737
1	1607	738
1	1613	739
1	1476	780
1	1464	781
1	1443	782
1	1418	783
1	1379	784
1	1359	785
1	1364	786
1	1383	787
1	1409	788
1	1445	789
1	1490	790
1	1541	791
1	1599	792
1	1657	793
1	1703	794
1	1737	795
1	1764	796
1	1791	797
1	1830	798
1	1854	799
1	1881	800
1	1908	801
1	1922	802
1	1934	803
1	1955	804
1	1973	805
1	1988	806
1	2006	807
1	2025	808
1	2037	809
1	2043	810
1	2044	811
1	2031	812
1	2012	813
1	1972	814
1	1934	815
1	1900	816
1	1868	817
1	1832	818
1	1791	819
1	1738	820
1	1681	821
1	1616	822
1	1556	823
1	1500	824
1	1436	825
1	1377	826
1	1321	827
1	1276	828
1	1242	829
1	1217	830
1	1204	831
1	1189	832
1	1186	833
1	1187	834
1	1206	835
1	1233	836
1	1274	837
1	1305	838
1	1325	839
1	1336	840
1	1346	841
1	1360	842
1	1376	843
1	1394	844
1	1412	845
1	1425	846
1	1432	847
1	1437	848
1	1449	849
1	1459	850
1	1480	851
1	1516	852
1	1555	853
1	1581	854
1	1590	855
1	1602	856
1	1624	857
1	1652	858
1	1669	859
1	1680	860
1	1683	861
1	1683	862
1	1683	863
1	1689	864
1	1690	865
1	1686	866
1	1680	867
1	1669	868
1	1651	869
1	1631	870
1	1608	871
1	1596	872
1	1593	873
1	1590	874
1	1596	875
1	1607	876
1	1624	877
1	1634	878
1	1634	879
1	1633	880
1	1624	881
1	1618	882
1	1608	883
1	1600	884
1	1585	885
1	1568	886
1	1557	887
1	1553	888
1	1547	889
1	1555	890
1	1563	891
1	1574	892
1	1585	893
1	1599	894
1	1603	895
1	1602	896
1	1602	897
1	1611	898
1	1621	899
1	1623	900
1	1616	901
1	1607	902
1	1586	903
1	1556	904
1	1531	905
1	1515	906
1	1505	907
1	1521	908
1	1540	909
1	1553	910
1	1567	911
1	1584	912
1	1607	913
1	1631	914
1	1646	915
1	1647	916
1	1647	917
1	1655	918
1	1660	919
1	1665	920
1	1671	921
1	1686	922
1	1710	923
1	1738	924
1	1752	925
1	1754	926
1	1737	927
1	1697	928
1	1646	929
1	1596	930
1	1554	931
1	1521	932
1	1490	933
1	1467	934
1	1452	935
1	1443	936
1	1443	937
1	1450	938
1	1454	939
1	1464	940
1	1479	941
1	1513	942
1	1564	943
1	1620	944
1	1674	945
1	1717	946
1	1749	947
1	1766	948
1	1772	949
1	1779	950
1	1791	951
1	1814	952
1	1823	953
1	1832	954
1	1828	955
1	1821	956
1	1817	957
1	1803	958
1	1793	959
1	1790	960
1	1780	961
1	1765	962
1	1753	963
1	1737	964
1	1715	965
1	1699	966
1	1686	967
1	1677	968
1	1677	969
1	1682	970
1	1698	971
1	1728	972
1	1755	973
1	1776	974
1	1802	975
1	1821	976
1	1827	977
1	1818	978
1	1796	979
1	1775	980
1	1743	981
1	1712	982
1	1683	983
1	1665	984
1	1660	985
1	1657	986
1	1655	987
1	1656	988
1	1662	989
1	1686	990
1	1712	991
1	1738	992
1	1764	993
1	1782	994
1	1791	995
1	1790	996
1	1786	997
1	1776	998
1	1769	999
1	1752	1000
1	1736	1001
1	1715	1002
1	1699	1003
1	1687	1004
1	1685	1005
1	1695	1006
1	1715	1007
1	1741	1008
1	1767	1009
1	1812	1010
1	1853	1011
1	1895	1012
1	1926	1013
1	1962	1014
1	1991	1015
1	2012	1016
1	2029	1017
1	2037	1018
1	2030	1019
1	2013	1020
1	1985	1021
1	1956	1022
1	1913	1023
1	1863	1024
1	1811	1025
1	1765	1026
1	1738	1027
1	1712	1028
1	1697	1029
1	1674	1030
1	1679	1031
1	1712	1032
1	1752	1033
1	1812	1034
1	1856	1035
1	1905	1036
1	1961	1037
1	2016	1038
1	2066	1039
1	2105	1040
1	2137	1041
1	2161	1042
1	2180	1043
1	2184	1044
1	2165	1045
1	2105	1046
1	2030	1047
1	1939	1048
1	1843	1049
1	1746	1050
1	1662	1051
1	1591	1052
1	1523	1053
1	1466	1054
1	1429	1055
1	1416	1056
1	1423	1057
1	1438	1058
1	1466	1059
1	1489	1060
1	1515	1061
1	1542	1062
1	1567	1063
1	1581	1064
1	1581	1065
1	1580	1066
1	1579	1067
1	1589	1068
1	1600	1069
1	1626	1070
1	1655	1071
1	1675	1072
1	1686	1073
1	1693	1074
1	1678	1075
1	1660	1076
1	1638	1077
1	1621	1078
1	1603	1079
1	1587	1080
1	1580	1081
1	1570	1082
1	1560	1083
1	1553	1084
1	1553	1085
1	1555	1086
1	1554	1087
1	1547	1088
1	1553	1089
1	1560	1090
1	1581	1091
1	1603	1092
1	1620	1093
1	1636	1094
1	1652	1095
1	1660	1096
1	1658	1097
1	1647	1098
1	1623	1099
1	1584	1100
1	1543	1101
1	1507	1102
1	1479	1103
1	1455	1104
1	1436	1105
1	1424	1106
1	1424	1107
1	1437	1108
1	1448	1109
1	1454	1110
1	1465	1111
1	1475	1112
1	1485	1113
1	1495	1114
1	1511	1115
1	1533	1116
1	1544	1117
1	1551	1118
1	1559	1119
1	1561	1120
1	1559	1121
1	1555	1122
1	1553	1123
1	1555	1124
1	1556	1125
1	1557	1126
1	1560	1127
1	1557	1128
1	1556	1129
1	1554	1130
1	1553	1131
1	1558	1132
1	1568	1133
1	1571	1134
1	1570	1135
1	1563	1136
1	1566	1137
1	1580	1138
1	1582	1139
1	1572	1140
1	1555	1141
1	1539	1142
1	1513	1143
1	1482	1144
1	1461	1145
1	1446	1146
1	1435	1147
1	1423	1148
1	1413	1149
1	1405	1150
1	1410	1151
1	1425	1152
1	1450	1153
1	1476	1154
1	1508	1155
1	1551	1156
1	1594	1157
1	1634	1158
1	1660	1159
1	1675	1160
1	1677	1161
1	1660	1162
1	1634	1163
1	1607	1164
1	1575	1165
1	1553	1166
1	1537	1167
1	1526	1168
1	1517	1169
1	1514	1170
1	1517	1171
1	1528	1172
1	1542	1173
1	1552	1174
1	1555	1175
1	1556	1176
1	1560	1177
1	1572	1178
1	1590	1179
1	1595	1180
1	1594	1181
1	1587	1182
1	1577	1183
1	1562	1184
1	1550	1185
1	1536	1186
1	1531	1187
1	1542	1188
1	1554	1189
1	1564	1190
1	1571	1191
1	1580	1192
1	1607	1193
1	1639	1194
1	1670	1195
1	1685	1196
1	1688	1197
1	1697	1198
1	1701	1199
1	1708	1200
1	1713	1201
1	1712	1202
1	1699	1203
1	1676	1204
1	1659	1205
1	1645	1206
1	1639	1207
1	1635	1208
1	1639	1209
1	1635	1210
1	1630	1211
1	1620	1212
1	1611	1213
1	1608	1214
1	1607	1215
1	1607	1216
1	1610	1217
1	1620	1218
1	1630	1219
1	1639	1220
1	1647	1221
1	1647	1222
1	1652	1223
1	1660	1224
1	1659	1225
1	1652	1226
1	1656	1227
1	1656	1228
1	1645	1229
1	1635	1230
1	1613	1231
1	1581	1232
1	1531	1233
1	1479	1234
1	1445	1235
1	1427	1236
1	1424	1237
1	1424	1238
1	1429	1239
1	1436	1240
1	1437	1241
1	1453	1242
1	1482	1243
1	1500	1244
1	1518	1245
1	1542	1246
1	1557	1247
1	1580	1248
1	1596	1249
1	1611	1250
1	1622	1251
1	1631	1252
1	1634	1253
1	1636	1254
1	1634	1255
1	1642	1256
1	1652	1257
1	1663	1258
1	1664	1259
1	1631	1280
1	1602	1281
1	1568	1282
1	1525	1283
1	1481	1284
1	1442	1285
1	1420	1286
1	1404	1287
1	1391	1288
1	1394	1289
1	1420	1290
1	1460	1291
1	1516	1292
1	1575	1293
1	1634	1294
1	1690	1295
1	1734	1296
1	1755	1297
1	1757	1298
1	1751	1299
1	1659	1260
1	1647	1261
1	1629	1262
1	1604	1263
1	1572	1264
1	1548	1265
1	1529	1266
1	1529	1267
1	1530	1268
1	1548	1269
1	1574	1270
1	1607	1271
1	1647	1272
1	1681	1273
1	1703	1274
1	1715	1275
1	1715	1276
1	1712	1277
1	1697	1278
1	1660	1279
1	1738	1300
1	1716	1301
1	1686	1302
1	1647	1303
1	1597	1304
1	1549	1305
1	1513	1306
1	1495	1307
1	1487	1308
1	1481	1309
1	1495	1310
1	1524	1311
1	1551	1312
1	1580	1313
1	1611	1314
1	1633	1315
1	1644	1316
1	1657	1317
1	1662	1318
1	1664	1319
1	1664	1320
1	1664	1321
1	1660	1322
1	1656	1323
1	1644	1324
1	1629	1325
1	1602	1326
1	1570	1327
1	1538	1328
1	1521	1329
1	1506	1330
1	1494	1331
1	1499	1332
1	1501	1333
1	1511	1334
1	1510	1335
1	1512	1336
1	1517	1337
1	1525	1338
1	1537	1339
1	1550	1340
1	1552	1341
1	1544	1342
1	1533	1343
1	1529	1344
1	1535	1345
1	1543	1346
1	1553	1347
1	1542	1348
1	1523	1349
1	1500	1350
1	1478	1351
1	1468	1352
1	1463	1353
1	1453	1354
1	1454	1355
1	1467	1356
1	1481	1357
1	1498	1358
1	1517	1359
1	1527	1360
1	1535	1361
1	1538	1362
1	1530	1363
1	1512	1364
1	1497	1365
1	1487	1366
1	1481	1367
1	1481	1368
1	1484	1369
1	1492	1370
1	1501	1371
1	1513	1372
1	1529	1373
1	1548	1374
1	1559	1375
1	1574	1376
1	1589	1377
1	1607	1378
1	1616	1379
1	1626	1380
1	1625	1381
1	1607	1382
1	1580	1383
1	1542	1384
1	1507	1385
1	1490	1386
1	1494	1387
1	1503	1388
1	1530	1389
1	1555	1390
1	1585	1391
1	1613	1392
1	1641	1393
1	1661	1394
1	1675	1395
1	1675	1396
1	1674	1397
1	1681	1398
1	1673	1399
1	1662	1400
1	1659	1401
1	1660	1402
1	1664	1403
1	1687	1404
1	1710	1405
1	1728	1406
1	1741	1407
1	1739	1408
1	1731	1409
1	1724	1410
1	1724	1411
1	1737	1412
1	1760	1413
1	1787	1414
1	1838	1415
1	1896	1416
1	1960	1417
1	2026	1418
1	2097	1419
1	2161	1420
1	2229	1421
1	2279	1422
1	2318	1423
1	2338	1424
1	2339	1425
1	2319	1426
1	2274	1427
1	2219	1428
1	2166	1429
1	2118	1430
1	2069	1431
1	2021	1432
1	1976	1433
1	1944	1434
1	1901	1435
1	1854	1436
1	1803	1437
1	1757	1438
1	1699	1439
1	1636	1440
1	1577	1441
1	1514	1442
1	1450	1443
1	1397	1444
1	1364	1445
1	1356	1446
1	1361	1447
1	1373	1448
1	1400	1449
1	1417	1450
1	1435	1451
1	1450	1452
1	1463	1453
1	1477	1454
1	1500	1455
1	1523	1456
1	1542	1457
1	1555	1458
1	1557	1459
1	1555	1460
1	1552	1461
1	1542	1462
1	1530	1463
1	1535	1464
1	1530	1465
1	1529	1466
1	1533	1467
1	1536	1468
1	1538	1469
1	1541	1470
1	1542	1471
1	1537	1472
1	1529	1473
1	1521	1474
1	1520	1475
1	1514	1476
1	1512	1477
1	1515	1478
1	1525	1479
1	1527	1480
1	1529	1481
1	1529	1482
1	1526	1483
1	1520	1484
1	1514	1485
1	1519	1486
1	1534	1487
1	1562	1488
1	1593	1489
1	1628	1490
1	1645	1491
1	1647	1492
1	1643	1493
1	1643	1494
1	1645	1495
1	1648	1496
1	1656	1497
1	1674	1498
1	1697	1499
1	1715	1500
1	1722	1501
1	1724	1502
1	1728	1503
1	1721	1504
1	1712	1505
1	1699	1506
1	1690	1507
1	1682	1508
1	1677	1509
1	1670	1510
1	1663	1511
1	1663	1512
1	1659	1513
1	1660	1514
1	1665	1515
1	1668	1516
1	1665	1517
1	1660	1518
1	1647	1519
1	1639	1520
1	1634	1521
1	1625	1522
1	1611	1523
1	1607	1524
1	1599	1525
1	1594	1526
1	1584	1527
1	1592	1528
1	1593	1529
1	1603	1530
1	1607	1531
1	1607	1532
1	1608	1533
1	1616	1534
1	1623	1535
1	1634	1536
1	1646	1537
1	1657	1538
1	1669	1539
1	1679	1540
1	1690	1541
1	1690	1542
1	1698	1543
1	1693	1544
1	1690	1545
1	1692	1546
1	1697	1547
1	1698	1548
1	1686	1549
1	1670	1550
1	1652	1551
1	1638	1552
1	1626	1553
1	1634	1554
1	1638	1555
1	1643	1556
1	1647	1557
1	1656	1558
1	1661	1559
1	1664	1560
1	1652	1561
1	1632	1562
1	1606	1563
1	1587	1564
1	1584	1565
1	1590	1566
1	1596	1567
1	1600	1568
1	1607	1569
1	1599	1570
1	1590	1571
1	1581	1572
1	1581	1573
1	1581	1574
1	1592	1575
1	1612	1576
1	1637	1577
1	1661	1578
1	1682	1579
1	1692	1580
1	1696	1581
1	1697	1582
1	1688	1583
1	1688	1584
1	1682	1585
1	1679	1586
1	1682	1587
1	1691	1588
1	1706	1589
1	1724	1590
1	1738	1591
1	1749	1592
1	1759	1593
1	1764	1594
1	1767	1595
1	1767	1596
1	1763	1597
1	1750	1598
1	1742	1599
1	1728	1600
1	1718	1601
1	1712	1602
1	1704	1603
1	1688	1604
1	1673	1605
1	1661	1606
1	1657	1607
1	1656	1608
1	1652	1609
1	1660	1610
1	1685	1611
1	1726	1612
1	1773	1613
1	1829	1614
1	1869	1615
1	1898	1616
1	1922	1617
1	1938	1618
1	1949	1619
1	1970	1620
1	1988	1621
1	1992	1622
1	1978	1623
1	1959	1624
1	1937	1625
1	1921	1626
1	1900	1627
1	1890	1628
1	1884	1629
1	1877	1630
1	1869	1631
1	1877	1632
1	1881	1633
1	1895	1634
1	1901	1635
1	1899	1636
1	1895	1637
1	1882	1638
1	1864	1639
1	1844	1640
1	1818	1641
1	1786	1642
1	1766	1643
1	1764	1644
1	1764	1645
1	1754	1646
1	1742	1647
1	1725	1648
1	1710	1649
1	1702	1650
1	1703	1651
1	1712	1652
1	1716	1653
1	1724	1654
1	1733	1655
1	1741	1656
1	1747	1657
1	1755	1658
1	1769	1659
1	1778	1660
1	1787	1661
1	1791	1662
1	1787	1663
1	1770	1664
1	1753	1665
1	1738	1666
1	1726	1667
1	1712	1668
1	1701	1669
1	1695	1670
1	1695	1671
1	1695	1672
1	1698	1673
1	1700	1674
1	1690	1675
1	1678	1676
1	1661	1677
1	1643	1678
1	1628	1679
1	1620	1680
1	1613	1681
1	1598	1682
1	1580	1683
1	1555	1684
1	1543	1685
1	1549	1686
1	1559	1687
1	1563	1688
1	1570	1689
1	1569	1690
1	1569	1691
1	1571	1692
1	1582	1693
1	1603	1694
1	1618	1695
1	1629	1696
1	1625	1697
1	1609	1698
1	1580	1699
1	1553	1700
1	1525	1701
1	1491	1702
1	1464	1703
1	1452	1704
1	1449	1705
1	1456	1706
1	1476	1707
1	1498	1708
1	1517	1709
1	1535	1710
1	1554	1711
1	1567	1712
1	1582	1713
1	1594	1714
1	1607	1715
1	1611	1716
1	1611	1717
1	1607	1718
1	1606	1719
1	1589	1720
1	1569	1721
1	1545	1722
1	1517	1723
1	1485	1724
1	1455	1725
1	1436	1726
1	1416	1727
1	1404	1728
1	1400	1729
1	1410	1730
1	1425	1731
1	1450	1732
1	1477	1733
1	1503	1734
1	1533	1735
1	1566	1736
1	1590	1737
1	1624	1738
1	1638	1739
1	1649	1740
1	1654	1741
1	1644	1742
1	1621	1743
1	1591	1744
1	1562	1745
1	1523	1746
1	1479	1747
1	1437	1748
1	1404	1749
1	1370	1750
1	1343	1751
1	1333	1752
1	1342	1753
1	1360	1754
1	1383	1755
1	1402	1756
1	1416	1757
1	1430	1758
1	1438	1759
1	1450	1760
1	1475	1761
1	1499	1762
1	1520	1763
1	1533	1764
1	1525	1765
1	1506	1766
1	1490	1767
1	1471	1768
1	1450	1769
1	1433	1770
1	1423	1771
1	1413	1772
1	1405	1773
1	1394	1774
1	1383	1775
1	1382	1776
1	1393	1777
1	1399	1778
1	1413	1779
1	1419	1780
1	1420	1781
1	1420	1782
1	1424	1783
1	1432	1784
1	1438	1785
1	1451	1786
1	1474	1787
1	1495	1788
1	1505	1789
1	1513	1790
1	1513	1791
1	1502	1792
1	1490	1793
1	1498	1794
1	1516	1795
1	1551	1796
1	1579	1797
1	1580	1798
1	1574	1799
1	1574	1800
1	1574	1801
1	1567	1802
1	1554	1803
1	1529	1804
1	1515	1805
1	1507	1806
1	1504	1807
1	1505	1808
1	1510	1809
1	1503	1810
1	1503	1811
1	1499	1812
1	1497	1813
1	1498	1814
1	1501	1815
1	1512	1816
1	1530	1817
1	1548	1818
1	1555	1819
1	1569	1820
1	1581	1821
1	1585	1822
1	1580	1823
1	1569	1824
1	1544	1825
1	1530	1826
1	1511	1827
1	1505	1828
1	1499	1829
1	1489	1830
1	1482	1831
1	1476	1832
1	1467	1833
1	1458	1834
1	1454	1835
1	1451	1836
1	1464	1837
1	1481	1838
1	1502	1839
1	1518	1840
1	1528	1841
1	1517	1842
1	1517	1843
1	1503	1844
1	1482	1845
1	1463	1846
1	1439	1847
1	1413	1848
1	1392	1849
1	1382	1850
1	1392	1851
1	1410	1852
1	1443	1853
1	1488	1854
1	1524	1855
1	1549	1856
1	1555	1857
1	1557	1858
1	1551	1859
1	1540	1860
1	1521	1861
1	1500	1862
1	1499	1863
1	1512	1864
1	1539	1865
1	1567	1866
1	1596	1867
1	1625	1868
1	1645	1869
1	1646	1870
1	1636	1871
1	1627	1872
1	1618	1873
1	1616	1874
1	1620	1875
1	1634	1876
1	1648	1877
1	1659	1878
1	1656	1879
1	1654	1880
1	1638	1881
1	1618	1882
1	1603	1883
1	1593	1884
1	1579	1885
1	1555	1886
1	1528	1887
1	1513	1888
1	1503	1889
1	1502	1890
1	1515	1891
1	1540	1892
1	1559	1893
1	1563	1894
1	1566	1895
1	1564	1896
1	1563	1897
1	1564	1898
1	1566	1899
1	1569	1900
1	1568	1901
1	1560	1902
1	1553	1903
1	1546	1904
1	1543	1905
1	1539	1906
1	1533	1907
1	1529	1908
1	1518	1909
1	1516	1910
1	1515	1911
1	1513	1912
1	1517	1913
1	1531	1914
1	1541	1915
1	1551	1916
1	1561	1917
1	1569	1918
1	1578	1919
1	1579	1920
1	1569	1921
1	1555	1922
1	1536	1923
1	1502	1924
1	1469	1925
1	1445	1926
1	1424	1927
1	1407	1928
1	1399	1929
1	1384	1930
1	1372	1931
1	1389	1932
1	1414	1933
1	1436	1934
1	1460	1935
1	1481	1936
1	1491	1937
1	1503	1938
1	1517	1939
1	1529	1940
1	1529	1941
1	1516	1942
1	1499	1943
1	1476	1944
1	1458	1945
1	1452	1946
1	1462	1947
1	1472	1948
1	1476	1949
1	1481	1950
1	1490	1951
1	1499	1952
1	1512	1953
1	1527	1954
1	1553	1955
1	1576	1956
1	1591	1957
1	1600	1958
1	1607	1959
1	1607	1960
1	1596	1961
1	1581	1962
1	1558	1963
1	1531	1964
1	1510	1965
1	1490	1966
1	1476	1967
1	1480	1968
1	1485	1969
1	1498	1970
1	1512	1971
1	1521	1972
1	1524	1973
1	1531	1974
1	1544	1975
1	1560	1976
1	1581	1977
1	1582	1978
1	1579	1979
1	1571	1980
1	1571	1981
1	1568	1982
1	1559	1983
1	1551	1984
1	1547	1985
1	1551	1986
1	1561	1987
1	1580	1988
1	1600	1989
1	1629	1990
1	1660	1991
1	1691	1992
1	1731	1993
1	1773	1994
1	1824	1995
1	1873	1996
1	1926	1997
1	1978	1998
1	2016	1999
1	2054	2000
1	2093	2001
1	2131	2002
1	2156	2003
1	2165	2004
1	2156	2005
1	2135	2006
1	2107	2007
1	2078	2008
1	2041	2009
1	2000	2010
1	1948	2011
1	1891	2012
1	1820	2013
1	1735	2014
1	1654	2015
1	1580	2016
1	1508	2017
1	1449	2018
1	1394	2019
1	1337	2020
1	1298	2021
1	1283	2022
1	1281	2023
1	1289	2024
1	1304	2025
1	1317	2026
1	1322	2027
1	1322	2028
1	1310	2029
1	1286	2030
1	1272	2031
1	1267	2032
1	1285	2033
1	1315	2034
1	1350	2035
1	1394	2036
1	1436	2037
1	1481	2038
1	1508	2039
1	1529	2040
1	1546	2041
1	1559	2042
1	1571	2043
1	1570	2044
1	1561	2045
1	1548	2046
1	1536	2047
1	1528	2048
1	1521	2049
1	1503	2050
1	1484	2051
1	1467	2052
1	1458	2053
1	1450	2054
1	1443	2055
1	1439	2056
1	1442	2057
1	1446	2058
1	1448	2059
1	1454	2060
1	1462	2061
1	1469	2062
1	1476	2063
1	1491	2064
1	1500	2065
1	1503	2066
1	1500	2067
1	1495	2068
1	1491	2069
1	1494	2070
1	1501	2071
1	1512	2072
1	1518	2073
1	1506	2074
1	1503	2075
1	1503	2076
1	1508	2077
1	1523	2078
1	1541	2079
1	1554	2080
1	1568	2081
1	1589	2082
1	1605	2083
1	1607	2084
1	1607	2085
1	1615	2086
1	1632	2087
1	1634	2088
1	1626	2089
1	1612	2090
1	1598	2091
1	1583	2092
1	1568	2093
1	1556	2094
1	1545	2095
1	1534	2096
1	1530	2097
1	1532	2098
1	1535	2099
1	1540	2100
1	1542	2101
1	1542	2102
1	1535	2103
1	1520	2104
1	1502	2105
1	1481	2106
1	1474	2107
1	1476	2108
1	1498	2109
1	1512	2110
1	1527	2111
1	1544	2112
1	1566	2113
1	1589	2114
1	1610	2115
1	1637	2116
1	1653	2117
1	1664	2118
1	1680	2119
1	1697	2120
1	1708	2121
1	1705	2122
1	1692	2123
1	1674	2124
1	1644	2125
1	1620	2126
1	1595	2127
1	1584	2128
1	1575	2129
1	1572	2130
1	1571	2131
1	1569	2132
1	1562	2133
1	1564	2134
1	1561	2135
1	1563	2136
1	1558	2137
1	1549	2138
1	1541	2139
1	1535	2140
1	1528	2141
1	1523	2142
1	1524	2143
1	1520	2144
1	1521	2145
1	1530	2146
1	1542	2147
1	1544	2148
1	1531	2149
1	1530	2150
1	1544	2151
1	1566	2152
1	1589	2153
1	1611	2154
1	1629	2155
1	1629	2156
1	1621	2157
1	1626	2158
1	1637	2159
1	1649	2160
1	1652	2161
1	1649	2162
1	1653	2163
1	1650	2164
1	1654	2165
1	1660	2166
1	1671	2167
1	1681	2168
1	1687	2169
1	1678	2170
1	1670	2171
1	1672	2172
1	1671	2173
1	1669	2174
1	1668	2175
1	1672	2176
1	1684	2177
1	1698	2178
1	1705	2179
1	1710	2180
1	1708	2181
1	1708	2182
1	1705	2183
1	1698	2184
1	1677	2185
1	1654	2186
1	1639	2187
1	1638	2188
1	1649	2189
1	1665	2190
1	1683	2191
1	1695	2192
1	1707	2193
1	1711	2194
1	1715	2195
1	1723	2196
1	1732	2197
1	1744	2198
1	1773	2199
1	1793	2200
1	1817	2201
1	1827	2202
1	1837	2203
1	1845	2204
1	1851	2205
1	1857	2206
1	1868	2207
1	1869	2208
1	1860	2209
1	1841	2210
1	1823	2211
1	1820	2212
1	1829	2213
1	1849	2214
1	1869	2215
1	1881	2216
1	1877	2217
1	1863	2218
1	1848	2219
1	1835	2220
1	1825	2221
1	1817	2222
1	1798	2223
1	1788	2224
1	1775	2225
1	1755	2226
1	1729	2227
1	1708	2228
1	1698	2229
1	1688	2230
1	1681	2231
1	1686	2232
1	1702	2233
1	1718	2234
1	1741	2235
1	1762	2236
1	1780	2237
1	1808	2238
1	1832	2239
1	1845	2240
1	1852	2241
1	1845	2242
1	1831	2243
1	1809	2244
1	1778	2245
1	1752	2246
1	1737	2247
1	1718	2248
1	1708	2249
1	1699	2250
1	1692	2251
1	1687	2252
1	1676	2253
1	1647	2254
1	1626	2255
1	1607	2256
1	1579	2257
1	1541	2258
1	1508	2259
1	1476	2260
1	1441	2261
1	1416	2262
1	1408	2263
1	1404	2264
1	1399	2265
1	1402	2266
1	1411	2267
1	1424	2268
1	1434	2269
1	1454	2270
1	1490	2271
1	1529	2272
1	1561	2273
1	1590	2274
1	1606	2275
1	1608	2276
1	1607	2277
1	1603	2278
1	1595	2279
1	1589	2280
1	1581	2281
1	1576	2282
1	1569	2283
1	1557	2284
1	1548	2285
1	1531	2286
1	1521	2287
1	1511	2288
1	1503	2289
1	1498	2290
1	1498	2291
1	1503	2292
1	1515	2293
1	1521	2294
1	1520	2295
1	1520	2296
1	1523	2297
1	1520	2298
1	1505	2299
1	1497	2300
1	1488	2301
1	1485	2302
1	1488	2303
1	1494	2304
1	1484	2305
1	1461	2306
1	1449	2307
1	1449	2308
1	1448	2309
1	1437	2310
1	1425	2311
1	1427	2312
1	1445	2313
1	1472	2314
1	1506	2315
1	1538	2316
1	1557	2317
1	1571	2318
1	1573	2319
1	1559	2320
1	1542	2321
1	1521	2322
1	1503	2323
1	1493	2324
1	1485	2325
1	1481	2326
1	1488	2327
1	1495	2328
1	1503	2329
1	1521	2330
1	1536	2331
1	1542	2332
1	1535	2333
1	1519	2334
1	1502	2335
1	1490	2336
1	1488	2337
1	1490	2338
1	1482	2339
1	1475	2340
1	1466	2341
1	1459	2342
1	1449	2343
1	1426	2344
1	1406	2345
1	1384	2346
1	1377	2347
1	1377	2348
1	1393	2349
1	1396	2350
1	1397	2351
1	1406	2352
1	1418	2353
1	1426	2354
1	1437	2355
1	1442	2356
1	1455	2357
1	1475	2358
1	1487	2359
1	1494	2360
1	1499	2361
1	1500	2362
1	1500	2363
1	1504	2364
1	1504	2365
1	1503	2366
1	1499	2367
1	1494	2368
1	1499	2369
1	1503	2370
1	1503	2371
1	1506	2372
1	1520	2373
1	1531	2374
1	1542	2375
1	1549	2376
1	1557	2377
1	1577	2378
1	1594	2379
1	1605	2380
1	1607	2381
1	1603	2382
1	1593	2383
1	1581	2384
1	1569	2385
1	1560	2386
1	1557	2387
1	1557	2388
1	1557	2389
1	1564	2390
1	1572	2391
1	1572	2392
1	1574	2393
1	1581	2394
1	1575	2395
1	1570	2396
1	1566	2397
1	1575	2398
1	1594	2399
1	1615	2400
1	1638	2401
1	1657	2402
1	1669	2403
1	1670	2404
1	1676	2405
1	1687	2406
1	1700	2407
1	1711	2408
1	1713	2409
1	1707	2410
1	1692	2411
1	1675	2412
1	1656	2413
1	1633	2414
1	1608	2415
1	1589	2416
1	1575	2417
1	1579	2418
1	1572	2419
1	1563	2420
1	1555	2421
1	1555	2422
1	1566	2423
1	1579	2424
1	1575	2425
1	1566	2426
1	1555	2427
1	1557	2428
1	1554	2429
1	1547	2430
1	1540	2431
1	1539	2432
1	1546	2433
1	1559	2434
1	1580	2435
1	1593	2436
1	1598	2437
1	1594	2438
1	1593	2439
1	1582	2440
1	1565	2441
1	1543	2442
1	1526	2443
1	1508	2444
1	1494	2445
1	1489	2446
1	1490	2447
1	1499	2448
1	1503	2449
1	1518	2450
1	1535	2451
1	1548	2452
1	1557	2453
1	1574	2454
1	1592	2455
1	1605	2456
1	1619	2457
1	1631	2458
1	1634	2459
1	1632	2460
1	1628	2461
1	1616	2462
1	1603	2463
1	1578	2464
1	1560	2465
1	1557	2466
1	1559	2467
1	1569	2468
1	1581	2469
1	1596	2470
1	1603	2471
1	1598	2472
1	1592	2473
1	1573	2474
1	1549	2475
1	1529	2476
1	1508	2477
1	1499	2478
1	1490	2479
1	1497	2480
1	1512	2481
1	1543	2482
1	1572	2483
1	1600	2484
1	1612	2485
1	1629	2486
1	1634	2487
1	1632	2488
1	1620	2489
1	1615	2490
1	1622	2491
1	1638	2492
1	1651	2493
1	1651	2494
1	1654	2495
1	1651	2496
1	1657	2497
1	1661	2498
1	1661	2499
1	1656	2500
1	1646	2501
1	1634	2502
1	1631	2503
1	1611	2504
1	1602	2505
1	1595	2506
1	1600	2507
1	1614	2508
1	1631	2509
1	1647	2510
1	1658	2511
1	1659	2512
1	1652	2513
1	1646	2514
1	1636	2515
1	1629	2516
1	1623	2517
1	1615	2518
1	1607	2519
1	1604	2520
1	1609	2521
1	1628	2522
1	1657	2523
1	1685	2524
1	1712	2525
1	1727	2526
1	1738	2527
1	1746	2528
1	1756	2529
1	1762	2530
1	1764	2531
1	1764	2532
1	1776	2533
1	1783	2534
1	1808	2535
1	1837	2536
1	1872	2537
1	1917	2538
1	1957	2539
1	1989	2540
1	2012	2541
1	2027	2542
1	2041	2543
1	2050	2544
1	2051	2545
1	2052	2546
1	2051	2547
1	2037	2548
1	2024	2549
1	2007	2550
1	1982	2551
1	1955	2552
1	1929	2553
1	1899	2554
1	1869	2555
1	1829	2556
1	1775	2557
1	1721	2558
1	1672	2559
1	1616	2560
1	1566	2561
1	1526	2562
1	1490	2563
1	1461	2564
1	1435	2565
1	1409	2566
1	1382	2567
1	1359	2568
1	1332	2569
1	1332	2570
1	1346	2571
1	1372	2572
1	1403	2573
1	1433	2574
1	1463	2575
1	1502	2576
1	1531	2577
1	1559	2578
1	1583	2579
1	1602	2580
1	1607	2581
1	1607	2582
1	1602	2583
1	1592	2584
1	1581	2585
1	1575	2586
1	1569	2587
1	1568	2588
1	1574	2589
1	1580	2590
1	1586	2591
1	1593	2592
1	1600	2593
1	1616	2594
1	1634	2595
1	1646	2596
1	1652	2597
1	1657	2598
1	1652	2599
1	1651	2600
1	1651	2601
1	1647	2602
1	1646	2603
1	1657	2604
1	1667	2605
1	1678	2606
1	1686	2607
1	1703	2608
1	1722	2609
1	1738	2610
1	1738	2611
1	1737	2612
1	1730	2613
1	1721	2614
1	1715	2615
1	1704	2616
1	1687	2617
1	1672	2618
1	1663	2619
1	1693	2640
1	1705	2641
1	1700	2642
1	1682	2643
1	1644	2644
1	1612	2645
1	1585	2646
1	1575	2647
1	1577	2648
1	1598	2649
1	1622	2650
1	1652	2651
1	1688	2652
1	1723	2653
1	1751	2654
1	1764	2655
1	1764	2656
1	1764	2657
1	1764	2658
1	1755	2659
1	1649	2620
1	1634	2621
1	1613	2622
1	1595	2623
1	1584	2624
1	1569	2625
1	1555	2626
1	1538	2627
1	1533	2628
1	1538	2629
1	1546	2630
1	1557	2631
1	1575	2632
1	1585	2633
1	1594	2634
1	1605	2635
1	1612	2636
1	1633	2637
1	1659	2638
1	1677	2639
1	1754	2660
1	1751	2661
1	1743	2662
1	1738	2663
1	1737	2664
1	1728	2665
1	1721	2666
1	1723	2667
1	1725	2668
1	1721	2669
1	1713	2670
1	1706	2671
1	1708	2672
1	1718	2673
1	1721	2674
1	1729	2675
1	1742	2676
1	1754	2677
1	1764	2678
1	1782	2679
1	1792	2680
1	1799	2681
1	1796	2682
1	1793	2683
1	1785	2684
1	1767	2685
1	1743	2686
1	1712	2687
1	1677	2688
1	1631	2689
1	1598	2690
1	1584	2691
1	1580	2692
1	1594	2693
1	1628	2694
1	1665	2695
1	1714	2696
1	1768	2697
1	1815	2698
1	1843	2699
1	1865	2700
1	1872	2701
1	1871	2702
1	1865	2703
1	1840	2704
1	1814	2705
1	1791	2706
1	1769	2707
1	1751	2708
1	1742	2709
1	1728	2710
1	1718	2711
1	1725	2712
1	1740	2713
1	1764	2714
1	1786	2715
1	1814	2716
1	1842	2717
1	1861	2718
1	1867	2719
1	1869	2720
1	1870	2721
1	1856	2722
1	1835	2723
1	1814	2724
1	1783	2725
1	1760	2726
1	1753	2727
1	1751	2728
1	1754	2729
1	1768	2730
1	1789	2731
1	1817	2732
1	1842	2733
1	1865	2734
1	1877	2735
1	1886	2736
1	1893	2737
1	1899	2738
1	1908	2739
1	1917	2740
1	1906	2741
1	1900	2742
1	1899	2743
1	1900	2744
1	1904	2745
1	1907	2746
1	1906	2747
1	1908	2748
1	1908	2749
1	1910	2750
1	1922	2751
1	1941	2752
1	1966	2753
1	1991	2754
1	2003	2755
1	2006	2756
1	2005	2757
1	2000	2758
1	1991	2759
1	1974	2760
1	1956	2761
1	1941	2762
1	1925	2763
1	1904	2764
1	1893	2765
1	1881	2766
1	1869	2767
1	1847	2768
1	1830	2769
1	1814	2770
1	1800	2771
1	1791	2772
1	1796	2773
1	1803	2774
1	1818	2775
1	1836	2776
1	1854	2777
1	1858	2778
1	1852	2779
1	1845	2780
1	1835	2781
1	1828	2782
1	1820	2783
1	1818	2784
1	1817	2785
1	1824	2786
1	1836	2787
1	1843	2788
1	1841	2789
1	1837	2790
1	1839	2791
1	1844	2792
1	1848	2793
1	1843	2794
1	1836	2795
1	1817	2796
1	1796	2797
1	1788	2798
1	1788	2799
1	1783	2800
1	1779	2801
1	1775	2802
1	1764	2803
1	1742	2804
1	1712	2805
1	1679	2806
1	1651	2807
1	1634	2808
1	1628	2809
1	1634	2810
1	1641	2811
1	1647	2812
1	1649	2813
1	1660	2814
1	1665	2815
1	1668	2816
1	1666	2817
1	1665	2818
1	1670	2819
1	1508	2840
1	1513	2841
1	1518	2842
1	1529	2843
1	1542	2844
1	1547	2845
1	1542	2846
1	1543	2847
1	1556	2848
1	1565	2849
1	1569	2850
1	1575	2851
1	1580	2852
1	1584	2853
1	1586	2854
1	1597	2855
1	1610	2856
1	1620	2857
1	1631	2858
1	1638	2859
1	1674	2820
1	1677	2821
1	1674	2822
1	1671	2823
1	1661	2824
1	1657	2825
1	1650	2826
1	1647	2827
1	1647	2828
1	1651	2829
1	1647	2830
1	1632	2831
1	1618	2832
1	1597	2833
1	1582	2834
1	1567	2835
1	1559	2836
1	1551	2837
1	1537	2838
1	1521	2839
1	1639	2860
1	1638	2861
1	1633	2862
1	1618	2863
1	1600	2864
1	1579	2865
1	1561	2866
1	1559	2867
1	1570	2868
1	1576	2869
1	1589	2870
1	1605	2871
1	1609	2872
1	1616	2873
1	1634	2874
1	1632	2875
1	1625	2876
1	1621	2877
1	1620	2878
1	1619	2879
1	1613	2880
1	1607	2881
1	1607	2882
1	1610	2883
1	1608	2884
1	1607	2885
1	1609	2886
1	1609	2887
1	1604	2888
1	1603	2889
1	1594	2890
1	1586	2891
1	1580	2892
1	1567	2893
1	1560	2894
1	1559	2895
1	1567	2896
1	1584	2897
1	1613	2898
1	1639	2899
1	1660	2900
1	1665	2901
1	1670	2902
1	1661	2903
1	1651	2904
1	1629	2905
1	1603	2906
1	1579	2907
1	1563	2908
1	1553	2909
1	1544	2910
1	1542	2911
1	1536	2912
1	1541	2913
1	1543	2914
1	1555	2915
1	1579	2916
1	1604	2917
1	1629	2918
1	1651	2919
1	1661	2920
1	1674	2921
1	1679	2922
1	1674	2923
1	1672	2924
1	1670	2925
1	1665	2926
1	1670	2927
1	1675	2928
1	1672	2929
1	1665	2930
1	1660	2931
1	1659	2932
1	1659	2933
1	1658	2934
1	1658	2935
1	1649	2936
1	1651	2937
1	1662	2938
1	1675	2939
1	1683	2940
1	1686	2941
1	1681	2942
1	1672	2943
1	1647	2944
1	1631	2945
1	1611	2946
1	1595	2947
1	1581	2948
1	1575	2949
1	1560	2950
1	1550	2951
1	1539	2952
1	1536	2953
1	1543	2954
1	1560	2955
1	1589	2956
1	1620	2957
1	1656	2958
1	1686	2959
1	1710	2960
1	1728	2961
1	1738	2962
1	1740	2963
1	1744	2964
1	1737	2965
1	1719	2966
1	1697	2967
1	1667	2968
1	1642	2969
1	1617	2970
1	1607	2971
1	1608	2972
1	1611	2973
1	1605	2974
1	1598	2975
1	1590	2976
1	1583	2977
1	1584	2978
1	1606	2979
1	1617	2980
1	1623	2981
1	1625	2982
1	1623	2983
1	1617	2984
1	1608	2985
1	1602	2986
1	1595	2987
1	1602	2988
1	1605	2989
1	1612	2990
1	1622	2991
1	1630	2992
1	1639	2993
1	1660	2994
1	1674	2995
1	1688	2996
1	1701	2997
1	1712	2998
1	1716	2999
1	1712	3000
1	1697	3001
1	1669	3002
1	1638	3003
1	1599	3004
1	1566	3005
1	1537	3006
1	1516	3007
1	1512	3008
1	1525	3009
1	1538	3010
1	1547	3011
1	1555	3012
1	1562	3013
1	1572	3014
1	1585	3015
1	1595	3016
1	1603	3017
1	1605	3018
1	1587	3019
1	1575	3020
1	1569	3021
1	1567	3022
1	1569	3023
1	1577	3024
1	1572	3025
1	1566	3026
1	1555	3027
1	1559	3028
1	1566	3029
1	1580	3030
1	1594	3031
1	1615	3032
1	1638	3033
1	1652	3034
1	1663	3035
1	1665	3036
1	1657	3037
1	1642	3038
1	1621	3039
1	1608	3040
1	1607	3041
1	1607	3042
1	1616	3043
1	1609	3044
1	1602	3045
1	1587	3046
1	1569	3047
1	1545	3048
1	1515	3049
1	1503	3050
1	1503	3051
1	1521	3052
1	1544	3053
1	1574	3054
1	1604	3055
1	1634	3056
1	1665	3057
1	1704	3058
1	1738	3059
1	1412	3100
1	1398	3101
1	1390	3102
1	1377	3103
1	1377	3104
1	1394	3105
1	1412	3106
1	1441	3107
1	1476	3108
1	1508	3109
1	1540	3110
1	1555	3111
1	1567	3112
1	1581	3113
1	1594	3114
1	1602	3115
1	1607	3116
1	1611	3117
1	1608	3118
1	1603	3119
1	2135	3080
1	2105	3081
1	2066	3082
1	2024	3083
1	1979	3084
1	1916	3085
1	1845	3086
1	1767	3087
1	1697	3088
1	1629	3089
1	1567	3090
1	1515	3091
1	1478	3092
1	1454	3093
1	1438	3094
1	1436	3095
1	1438	3096
1	1440	3097
1	1436	3098
1	1428	3099
1	1762	3060
1	1782	3061
1	1795	3062
1	1803	3063
1	1816	3064
1	1822	3065
1	1829	3066
1	1834	3067
1	1845	3068
1	1871	3069
1	1895	3070
1	1920	3071
1	1948	3072
1	1985	3073
1	2026	3074
1	2066	3075
1	2106	3076
1	2137	3077
1	2157	3078
1	2154	3079
1	1592	3120
1	1582	3121
1	1573	3122
1	1566	3123
1	1557	3124
1	1562	3125
1	1570	3126
1	1579	3127
1	1585	3128
1	1603	3129
1	1624	3130
1	1637	3131
1	1659	3132
1	1661	3133
1	1671	3134
1	1664	3135
1	1645	3136
1	1620	3137
1	1589	3138
1	1566	3139
1	1542	3140
1	1517	3141
1	1492	3142
1	1477	3143
1	1481	3144
1	1497	3145
1	1519	3146
1	1535	3147
1	1549	3148
1	1550	3149
1	1552	3150
1	1555	3151
1	1560	3152
1	1568	3153
1	1574	3154
1	1585	3155
1	1607	3156
1	1629	3157
1	1654	3158
1	1677	3159
1	1681	3160
1	1670	3161
1	1646	3162
1	1620	3163
1	1595	3164
1	1578	3165
1	1564	3166
1	1557	3167
1	1565	3168
1	1576	3169
1	1591	3170
1	1607	3171
1	1620	3172
1	1631	3173
1	1652	3174
1	1671	3175
1	1688	3176
1	1703	3177
1	1710	3178
1	1712	3179
1	1720	3180
1	1733	3181
1	1738	3182
1	1740	3183
1	1731	3184
1	1716	3185
1	1699	3186
1	1676	3187
1	1652	3188
1	1643	3189
1	1630	3190
1	1619	3191
1	1611	3192
1	1607	3193
1	1595	3194
1	1579	3195
1	1551	3196
1	1529	3197
1	1517	3198
1	1521	3199
1	1530	3200
1	1540	3201
1	1542	3202
1	1554	3203
1	1574	3204
1	1594	3205
1	1613	3206
1	1629	3207
1	1635	3208
1	1640	3209
1	1648	3210
1	1660	3211
1	1674	3212
1	1680	3213
1	1677	3214
1	1677	3215
1	1679	3216
1	1674	3217
1	1665	3218
1	1656	3219
1	1636	3220
1	1619	3221
1	1589	3222
1	1550	3223
1	1517	3224
1	1508	3225
1	1515	3226
1	1538	3227
1	1569	3228
1	1605	3229
1	1641	3230
1	1675	3231
1	1708	3232
1	1735	3233
1	1753	3234
1	1766	3235
1	1774	3236
1	1778	3237
1	1790	3238
1	1794	3239
1	1800	3240
1	1812	3241
1	1814	3242
1	1809	3243
1	1796	3244
1	1795	3245
1	1799	3246
1	1809	3247
1	1817	3248
1	1832	3249
1	1842	3250
1	1846	3251
1	1848	3252
1	1848	3253
1	1843	3254
1	1837	3255
1	1823	3256
1	1802	3257
1	1783	3258
1	1756	3259
1	1742	3260
1	1736	3261
1	1734	3262
1	1738	3263
1	1753	3264
1	1770	3265
1	1790	3266
1	1800	3267
1	1819	3268
1	1838	3269
1	1843	3270
1	1842	3271
1	1835	3272
1	1821	3273
1	1801	3274
1	1796	3275
1	1796	3276
1	1796	3277
1	1803	3278
1	1823	3279
1	1830	3280
1	1821	3281
1	1800	3282
1	1778	3283
1	1756	3284
1	1738	3285
1	1726	3286
1	1723	3287
1	1724	3288
1	1725	3289
1	1737	3290
1	1751	3291
1	1764	3292
1	1775	3293
1	1788	3294
1	1788	3295
1	1788	3296
1	1790	3297
1	1793	3298
1	1791	3299
1	1790	3300
1	1785	3301
1	1773	3302
1	1759	3303
1	1738	3304
1	1720	3305
1	1707	3306
1	1686	3307
1	1665	3308
1	1662	3309
1	1661	3310
1	1674	3311
1	1693	3312
1	1721	3313
1	1752	3314
1	1791	3315
1	1823	3316
1	1843	3317
1	1852	3318
1	1841	3319
1	1817	3320
1	1782	3321
1	1746	3322
1	1712	3323
1	1696	3324
1	1688	3325
1	1695	3326
1	1695	3327
1	1699	3328
1	1683	3329
1	1674	3330
1	1664	3331
1	1660	3332
1	1656	3333
1	1651	3334
1	1648	3335
1	1636	3336
1	1603	3337
1	1546	3338
1	1503	3339
1	1476	3340
1	1468	3341
1	1478	3342
1	1498	3343
1	1508	3344
1	1518	3345
1	1542	3346
1	1567	3347
1	1593	3348
1	1611	3349
1	1628	3350
1	1641	3351
1	1652	3352
1	1652	3353
1	1651	3354
1	1638	3355
1	1625	3356
1	1607	3357
1	1594	3358
1	1593	3359
1	1603	3360
1	1607	3361
1	1600	3362
1	1592	3363
1	1569	3364
1	1553	3365
1	1533	3366
1	1512	3367
1	1495	3368
1	1489	3369
1	1477	3370
1	1476	3371
1	1485	3372
1	1494	3373
1	1498	3374
1	1500	3375
1	1503	3376
1	1504	3377
1	1508	3378
1	1512	3379
1	1527	3380
1	1534	3381
1	1539	3382
1	1532	3383
1	1530	3384
1	1514	3385
1	1498	3386
1	1485	3387
1	1477	3388
1	1472	3389
1	1463	3390
1	1463	3391
1	1476	3392
1	1489	3393
1	1503	3394
1	1512	3395
1	1528	3396
1	1539	3397
1	1546	3398
1	1542	3399
1	1523	3400
1	1502	3401
1	1481	3402
1	1466	3403
1	1451	3404
1	1441	3405
1	1442	3406
1	1454	3407
1	1475	3408
1	1481	3409
1	1499	3410
1	1510	3411
1	1514	3412
1	1521	3413
1	1535	3414
1	1546	3415
1	1555	3416
1	1565	3417
1	1571	3418
1	1576	3419
1	1583	3460
1	1580	3461
1	1568	3462
1	1557	3463
1	1556	3464
1	1560	3465
1	1567	3466
1	1566	3467
1	1566	3468
1	1561	3469
1	1566	3470
1	1576	3471
1	1581	3472
1	1590	3473
1	1592	3474
1	1584	3475
1	1580	3476
1	1572	3477
1	1566	3478
1	1557	3479
1	1578	3440
1	1563	3441
1	1546	3442
1	1532	3443
1	1523	3444
1	1513	3445
1	1503	3446
1	1491	3447
1	1485	3448
1	1481	3449
1	1485	3450
1	1490	3451
1	1507	3452
1	1526	3453
1	1543	3454
1	1559	3455
1	1574	3456
1	1582	3457
1	1583	3458
1	1584	3459
1	1569	3420
1	1564	3421
1	1556	3422
1	1550	3423
1	1534	3424
1	1525	3425
1	1508	3426
1	1488	3427
1	1463	3428
1	1454	3429
1	1451	3430
1	1461	3431
1	1476	3432
1	1503	3433
1	1530	3434
1	1557	3435
1	1577	3436
1	1585	3437
1	1590	3438
1	1584	3439
1	1546	3480
1	1528	3481
1	1507	3482
1	1490	3483
1	1472	3484
1	1467	3485
1	1476	3486
1	1492	3487
1	1521	3488
1	1566	3489
1	1607	3490
1	1643	3491
1	1678	3492
1	1710	3493
1	1733	3494
1	1738	3495
1	1737	3496
1	1716	3497
1	1693	3498
1	1667	3499
1	1651	3500
1	1634	3501
1	1618	3502
1	1602	3503
1	1582	3504
1	1560	3505
1	1535	3506
1	1506	3507
1	1482	3508
1	1467	3509
1	1461	3510
1	1472	3511
1	1486	3512
1	1510	3513
1	1544	3514
1	1581	3515
1	1626	3516
1	1670	3517
1	1708	3518
1	1730	3519
1	1739	3520
1	1737	3521
1	1717	3522
1	1687	3523
1	1651	3524
1	1602	3525
1	1546	3526
1	1503	3527
1	1471	3528
1	1451	3529
1	1455	3530
1	1463	3531
1	1472	3532
1	1477	3533
1	1499	3534
1	1528	3535
1	1563	3536
1	1595	3537
1	1616	3538
1	1625	3539
1	1633	3540
1	1631	3541
1	1623	3542
1	1609	3543
1	1595	3544
1	1589	3545
1	1580	3546
1	1563	3547
1	1551	3548
1	1544	3549
1	1533	3550
1	1520	3551
1	1520	3552
1	1526	3553
1	1524	3554
1	1525	3555
1	1527	3556
1	1530	3557
1	1540	3558
1	1554	3559
1	1560	3560
1	1566	3561
1	1564	3562
1	1560	3563
1	1553	3564
1	1541	3565
1	1534	3566
1	1528	3567
1	1525	3568
1	1526	3569
1	1530	3570
1	1553	3571
1	1582	3572
1	1625	3573
1	1670	3574
1	1703	3575
1	1738	3576
1	1760	3577
1	1763	3578
1	1738	3579
1	1698	3580
1	1643	3581
1	1583	3582
1	1527	3583
1	1469	3584
1	1413	3585
1	1384	3586
1	1384	3587
1	1403	3588
1	1441	3589
1	1489	3590
1	1533	3591
1	1580	3592
1	1625	3593
1	1662	3594
1	1694	3595
1	1729	3596
1	1762	3597
1	1785	3598
1	1799	3599
1	1815	3600
1	1818	3601
1	1821	3602
1	1817	3603
1	1794	3604
1	1787	3605
1	1787	3606
1	1788	3607
1	1798	3608
1	1809	3609
1	1817	3610
1	1835	3611
1	1862	3612
1	1898	3613
1	1948	3614
1	2000	3615
1	2053	3616
1	2100	3617
1	2133	3618
1	2156	3619
1	2165	3620
1	2168	3621
1	2160	3622
1	2144	3623
1	2112	3624
1	2068	3625
1	2024	3626
1	1965	3627
1	1910	3628
1	1819	3629
1	1760	3630
1	1692	3631
1	1634	3632
1	1580	3633
1	1530	3634
1	1492	3635
1	1464	3636
1	1452	3637
1	1456	3638
1	1474	3639
1	1490	3640
1	1494	3641
1	1498	3642
1	1502	3643
1	1497	3644
1	1490	3645
1	1482	3646
1	1476	3647
1	1466	3648
1	1476	3649
1	1488	3650
1	1508	3651
1	1533	3652
1	1562	3653
1	1589	3654
1	1610	3655
1	1633	3656
1	1639	3657
1	1636	3658
1	1634	3659
1	1626	3660
1	1608	3661
1	1580	3662
1	1542	3663
1	1507	3664
1	1497	3665
1	1494	3666
1	1500	3667
1	1505	3668
1	1507	3669
1	1528	3670
1	1561	3671
1	1602	3672
1	1638	3673
1	1668	3674
1	1697	3675
1	1712	3676
1	1711	3677
1	1697	3678
1	1660	3679
1	1593	3700
1	1581	3701
1	1572	3702
1	1568	3703
1	1566	3704
1	1575	3705
1	1593	3706
1	1612	3707
1	1631	3708
1	1638	3709
1	1646	3710
1	1649	3711
1	1659	3712
1	1674	3713
1	1675	3714
1	1678	3715
1	1686	3716
1	1698	3717
1	1708	3718
1	1711	3719
1	1630	3680
1	1593	3681
1	1571	3682
1	1557	3683
1	1569	3684
1	1579	3685
1	1600	3686
1	1610	3687
1	1615	3688
1	1611	3689
1	1606	3690
1	1607	3691
1	1616	3692
1	1625	3693
1	1625	3694
1	1625	3695
1	1623	3696
1	1620	3697
1	1611	3698
1	1607	3699
1	1703	3720
1	1683	3721
1	1648	3722
1	1615	3723
1	1580	3724
1	1562	3725
1	1561	3726
1	1573	3727
1	1582	3728
1	1593	3729
1	1600	3730
1	1607	3731
1	1622	3732
1	1635	3733
1	1647	3734
1	1649	3735
1	1652	3736
1	1660	3737
1	1665	3738
1	1662	3739
1	1665	3740
1	1666	3741
1	1660	3742
1	1656	3743
1	1651	3744
1	1647	3745
1	1648	3746
1	1661	3747
1	1670	3748
1	1673	3749
1	1680	3750
1	1691	3751
1	1707	3752
1	1719	3753
1	1726	3754
1	1738	3755
1	1743	3756
1	1751	3757
1	1764	3758
1	1764	3759
1	1754	3760
1	1738	3761
1	1727	3762
1	1717	3763
1	1713	3764
1	1711	3765
1	1710	3766
1	1712	3767
1	1716	3768
1	1720	3769
1	1733	3770
1	1751	3771
1	1765	3772
1	1789	3773
1	1802	3774
1	1816	3775
1	1817	3776
1	1812	3777
1	1795	3778
1	1783	3779
1	1772	3780
1	1760	3781
1	1750	3782
1	1733	3783
1	1703	3784
1	1692	3785
1	1687	3786
1	1690	3787
1	1701	3788
1	1717	3789
1	1736	3790
1	1753	3791
1	1776	3792
1	1791	3793
1	1811	3794
1	1827	3795
1	1837	3796
1	1843	3797
1	1847	3798
1	1844	3799
1	1848	3800
1	1849	3801
1	1843	3802
1	1843	3803
1	1834	3804
1	1824	3805
1	1819	3806
1	1822	3807
1	1831	3808
1	1844	3809
1	1856	3810
1	1869	3811
1	1874	3812
1	1877	3813
1	1872	3814
1	1870	3815
1	1869	3816
1	1872	3817
1	1886	3818
1	1893	3819
1	1895	3820
1	1891	3821
1	1887	3822
1	1875	3823
1	1859	3824
1	1844	3825
1	1819	3826
1	1794	3827
1	1763	3828
1	1730	3829
1	1712	3830
1	1716	3831
1	1742	3832
1	1778	3833
1	1818	3834
1	1852	3835
1	1890	3836
1	1922	3837
1	1951	3838
1	1960	3839
1	1803	3860
1	1787	3861
1	1764	3862
1	1744	3863
1	1734	3864
1	1727	3865
1	1721	3866
1	1712	3867
1	1710	3868
1	1711	3869
1	1714	3870
1	1719	3871
1	1723	3872
1	1724	3873
1	1712	3874
1	1703	3875
1	1691	3876
1	1674	3877
1	1651	3878
1	1625	3879
1	1948	3840
1	1927	3841
1	1908	3842
1	1893	3843
1	1869	3844
1	1868	3845
1	1868	3846
1	1862	3847
1	1868	3848
1	1869	3849
1	1864	3850
1	1856	3851
1	1852	3852
1	1845	3853
1	1844	3854
1	1843	3855
1	1841	3856
1	1838	3857
1	1834	3858
1	1818	3859
1	1600	3880
1	1587	3881
1	1580	3882
1	1573	3883
1	1566	3884
1	1555	3885
1	1551	3886
1	1546	3887
1	1548	3888
1	1551	3889
1	1555	3890
1	1562	3891
1	1563	3892
1	1556	3893
1	1566	3894
1	1575	3895
1	1580	3896
1	1586	3897
1	1600	3898
1	1619	3899
1	1634	3900
1	1645	3901
1	1658	3902
1	1668	3903
1	1679	3904
1	1688	3905
1	1699	3906
1	1703	3907
1	1695	3908
1	1671	3909
1	1636	3910
1	1603	3911
1	1573	3912
1	1547	3913
1	1528	3914
1	1512	3915
1	1499	3916
1	1490	3917
1	1490	3918
1	1485	3919
1	1479	3920
1	1476	3921
1	1476	3922
1	1478	3923
1	1490	3924
1	1503	3925
1	1517	3926
1	1518	3927
1	1529	3928
1	1528	3929
1	1526	3930
1	1524	3931
1	1523	3932
1	1526	3933
1	1528	3934
1	1529	3935
1	1529	3936
1	1531	3937
1	1538	3938
1	1539	3939
1	1540	3940
1	1546	3941
1	1555	3942
1	1580	3943
1	1598	3944
1	1611	3945
1	1625	3946
1	1626	3947
1	1615	3948
1	1584	3949
1	1557	3950
1	1529	3951
1	1500	3952
1	1485	3953
1	1485	3954
1	1489	3955
1	1503	3956
1	1517	3957
1	1532	3958
1	1555	3959
1	1579	3960
1	1585	3961
1	1584	3962
1	1581	3963
1	1556	3964
1	1543	3965
1	1529	3966
1	1521	3967
1	1529	3968
1	1553	3969
1	1579	3970
1	1607	3971
1	1630	3972
1	1647	3973
1	1660	3974
1	1670	3975
1	1674	3976
1	1674	3977
1	1670	3978
1	1661	3979
1	1659	3980
1	1651	3981
1	1636	3982
1	1611	3983
1	1590	3984
1	1567	3985
1	1542	3986
1	1516	3987
1	1503	3988
1	1489	3989
1	1489	3990
1	1499	3991
1	1512	3992
1	1533	3993
1	1556	3994
1	1583	3995
1	1603	3996
1	1619	3997
1	1634	3998
1	1648	3999
1	1642	4000
1	1628	4001
1	1619	4002
1	1624	4003
1	1626	4004
1	1624	4005
1	1611	4006
1	1604	4006
1	1592	4008
1	1576	4009
1	1569	4010
1	1561	4011
1	1555	4012
1	1553	4013
1	1551	4014
1	1550	4014
1	1554	4016
1	1555	4017
1	1555	4018
1	1555	4019
1	1557	4020
1	1566	4021
1	1571	4022
1	1574	4022
1	1566	4024
1	1560	4025
1	1555	4026
1	1541	4027
1	1527	4028
1	1529	4029
1	1543	4030
1	1566	4030
1	1592	4032
1	1600	4033
1	1625	4034
1	1647	4035
1	1665	4036
1	1665	4037
1	1659	4038
1	1639	4038
1	1634	4040
1	1643	4041
1	1648	4042
1	1651	4043
1	1646	4044
1	1644	4045
1	1648	4046
1	1661	4046
1	1675	4048
1	1686	4049
1	1686	4050
1	1686	4051
1	1679	4052
1	1670	4053
1	1643	4054
1	1629	4054
1	1618	4056
1	1615	4057
1	1613	4058
1	1618	4059
1	1617	4080
1	1613	4081
1	1610	4082
1	1611	4083
1	1616	4084
1	1625	4085
1	1634	4086
1	1647	4086
1	1650	4088
1	1644	4089
1	1636	4090
1	1634	4091
1	1629	4092
1	1628	4093
1	1632	4094
1	1629	4094
1	1625	4096
1	1624	4097
1	1628	4098
1	1632	4099
1	1632	4080
1	1620	4081
1	1613	4082
1	1612	4083
1	1610	4084
1	1612	4085
1	1609	4086
1	1607	4086
1	1602	4088
1	1596	4089
1	1584	4090
1	1575	4091
1	1563	4092
1	1548	4093
1	1530	4094
1	1525	4094
1	1521	4096
1	1526	4097
1	1529	4098
1	1519	4099
1	1513	4100
1	1512	4101
1	1517	4102
1	1533	4103
1	1560	4104
1	1593	4105
1	1634	4106
1	1670	4107
1	1703	4108
1	1726	4109
1	1741	4110
1	1748	4111
1	1751	4112
1	1737	4113
1	1710	4114
1	1685	4115
1	1647	4116
1	1611	4117
1	1580	4118
1	1553	4119
1	1528	4120
1	1505	4121
1	1499	4122
1	1498	4123
1	1508	4124
1	1529	4125
1	1538	4126
1	1553	4127
1	1568	4128
1	1586	4129
1	1607	4130
1	1625	4131
1	1644	4132
1	1656	4133
1	1657	4134
1	1652	4135
1	1652	4136
1	1660	4137
1	1670	4138
1	1661	4139
1	1657	4140
1	1647	4141
1	1634	4142
1	1628	4143
1	1607	4144
1	1592	4145
1	1574	4146
1	1559	4147
1	1555	4148
1	1569	4149
1	1587	4150
1	1605	4151
1	1621	4152
1	1640	4153
1	1657	4154
1	1673	4155
1	1686	4156
1	1696	4157
1	1700	4158
1	1701	4159
1	1706	4160
1	1705	4161
1	1710	4162
1	1723	4163
1	1737	4164
1	1741	4165
1	1752	4166
1	1769	4167
1	1791	4168
1	1802	4169
1	1803	4170
1	1796	4171
1	1796	4172
1	1813	4173
1	1829	4174
1	1856	4175
1	1885	4176
1	1914	4177
1	1949	4178
1	1987	4179
1	2017	4180
1	2047	4181
1	2073	4182
1	2097	4183
1	2110	4184
1	2116	4185
1	2115	4186
1	2105	4187
1	2079	4188
1	2027	4189
1	1985	4190
1	1924	4191
1	1860	4192
1	1795	4193
1	1738	4194
1	1683	4195
1	1638	4196
1	1598	4197
1	1561	4198
1	1533	4199
1	1520	4200
1	1520	4201
1	1533	4202
1	1551	4203
1	1557	4204
1	1567	4205
1	1571	4206
1	1575	4207
1	1581	4208
1	1592	4209
1	1594	4210
1	1590	4211
1	1574	4212
1	1555	4213
1	1542	4214
1	1534	4215
1	1530	4216
1	1535	4217
1	1539	4218
1	1535	4219
1	1532	4220
1	1525	4221
1	1516	4222
1	1510	4223
1	1511	4224
1	1510	4225
1	1520	4226
1	1524	4227
1	1541	4228
1	1552	4229
1	1560	4230
1	1580	4231
1	1602	4232
1	1629	4233
1	1644	4234
1	1656	4235
1	1660	4236
1	1657	4237
1	1647	4238
1	1635	4239
1	1620	4240
1	1602	4241
1	1587	4242
1	1574	4243
1	1564	4244
1	1559	4245
1	1557	4246
1	1553	4247
1	1555	4248
1	1555	4249
1	1556	4250
1	1558	4251
1	1564	4252
1	1575	4253
1	1597	4254
1	1620	4255
1	1643	4256
1	1662	4257
1	1683	4258
1	1690	4259
1	1607	4280
1	1598	4281
1	1593	4282
1	1583	4283
1	1581	4284
1	1572	4285
1	1557	4286
1	1554	4287
1	1555	4288
1	1558	4289
1	1571	4290
1	1591	4291
1	1610	4292
1	1626	4293
1	1628	4294
1	1640	4295
1	1665	4296
1	1695	4297
1	1721	4298
1	1742	4299
1	1691	4260
1	1686	4261
1	1682	4262
1	1677	4263
1	1661	4264
1	1652	4265
1	1643	4266
1	1632	4267
1	1612	4268
1	1609	4269
1	1603	4270
1	1602	4271
1	1606	4272
1	1610	4273
1	1610	4274
1	1607	4275
1	1608	4276
1	1611	4277
1	1607	4278
1	1607	4279
1	1746	4300
1	1739	4301
1	1727	4302
1	1711	4303
1	1687	4304
1	1661	4305
1	1634	4306
1	1608	4307
1	1594	4308
1	1575	4309
1	1564	4310
1	1556	4311
1	1555	4312
1	1575	4313
1	1611	4314
1	1657	4315
1	1698	4316
1	1733	4317
1	1747	4318
1	1755	4319
1	1754	4320
1	1754	4321
1	1751	4322
1	1738	4323
1	1712	4324
1	1698	4325
1	1690	4326
1	1691	4327
1	1699	4328
1	1712	4329
1	1742	4330
1	1759	4331
1	1769	4332
1	1788	4333
1	1787	4334
1	1789	4335
1	1791	4336
1	1800	4337
1	1811	4338
1	1815	4339
1	1812	4340
1	1795	4341
1	1778	4342
1	1764	4343
1	1749	4344
1	1726	4345
1	1697	4346
1	1660	4347
1	1636	4348
1	1619	4349
1	1609	4350
1	1616	4351
1	1634	4352
1	1661	4353
1	1694	4354
1	1712	4355
1	1741	4356
1	1764	4357
1	1781	4358
1	1815	4359
1	1832	4360
1	1850	4361
1	1867	4362
1	1873	4363
1	1880	4364
1	1875	4365
1	1865	4366
1	1843	4367
1	1827	4368
1	1796	4369
1	1778	4370
1	1754	4371
1	1742	4372
1	1742	4373
1	1755	4374
1	1765	4375
1	1776	4376
1	1782	4377
1	1790	4378
1	1791	4379
1	1937	4400
1	1908	4401
1	1869	4402
1	1827	4403
1	1790	4404
1	1757	4405
1	1742	4406
1	1744	4407
1	1755	4408
1	1765	4409
1	1772	4410
1	1778	4411
1	1779	4412
1	1786	4413
1	1791	4414
1	1802	4415
1	1818	4416
1	1835	4417
1	1845	4418
1	1858	4419
1	1775	4380
1	1756	4381
1	1746	4382
1	1746	4383
1	1751	4384
1	1764	4385
1	1777	4386
1	1791	4387
1	1803	4388
1	1830	4389
1	1856	4390
1	1890	4391
1	1922	4392
1	1948	4393
1	1971	4394
1	1989	4395
1	1996	4396
1	1988	4397
1	1983	4398
1	1958	4399
1	1857	4420
1	1849	4421
1	1834	4422
1	1816	4423
1	1794	4424
1	1773	4425
1	1741	4426
1	1718	4427
1	1696	4428
1	1673	4429
1	1657	4430
1	1649	4431
1	1648	4432
1	1651	4433
1	1656	4434
1	1660	4435
1	1660	4436
1	1659	4437
1	1656	4438
1	1647	4439
1	1641	4440
1	1634	4441
1	1632	4442
1	1625	4443
1	1607	4444
1	1591	4445
1	1571	4446
1	1557	4447
1	1561	4448
1	1580	4449
1	1592	4450
1	1607	4451
1	1625	4452
1	1646	4453
1	1674	4454
1	1697	4455
1	1709	4456
1	1708	4457
1	1698	4458
1	1673	4459
1	1658	4460
1	1652	4461
1	1654	4462
1	1652	4463
1	1649	4464
1	1639	4465
1	1620	4466
1	1593	4467
1	1560	4468
1	1539	4469
1	1529	4470
1	1523	4471
1	1511	4472
1	1503	4473
1	1491	4474
1	1492	4475
1	1495	4476
1	1494	4477
1	1499	4478
1	1511	4479
1	1513	4480
1	1517	4481
1	1524	4482
1	1533	4483
1	1544	4484
1	1551	4485
1	1557	4486
1	1569	4487
1	1585	4488
1	1602	4489
1	1607	4490
1	1611	4491
1	1607	4492
1	1607	4493
1	1611	4494
1	1607	4495
1	1598	4496
1	1583	4497
1	1566	4498
1	1542	4499
1	1517	4500
1	1492	4501
1	1479	4502
1	1479	4503
1	1471	4504
1	1467	4505
1	1472	4506
1	1477	4507
1	1494	4508
1	1520	4509
1	1536	4510
1	1548	4511
1	1557	4512
1	1566	4513
1	1577	4514
1	1596	4515
1	1616	4516
1	1625	4517
1	1625	4518
1	1607	4519
1	1593	4520
1	1561	4521
1	1529	4522
1	1505	4523
1	1502	4524
1	1497	4525
1	1491	4526
1	1484	4527
1	1498	4528
1	1529	4529
1	1548	4530
1	1577	4531
1	1602	4532
1	1625	4533
1	1647	4534
1	1660	4535
1	1670	4536
1	1680	4537
1	1683	4538
1	1677	4539
1	1661	4540
1	1644	4541
1	1625	4542
1	1598	4543
1	1574	4544
1	1551	4545
1	1530	4546
1	1519	4547
1	1518	4548
1	1528	4549
1	1537	4550
1	1551	4551
1	1562	4552
1	1572	4553
1	1583	4554
1	1593	4555
1	1607	4556
1	1613	4557
1	1608	4558
1	1600	4559
1	1591	4560
1	1581	4561
1	1567	4562
1	1555	4563
1	1535	4564
1	1529	4565
1	1535	4566
1	1554	4567
1	1571	4568
1	1590	4569
1	1598	4570
1	1602	4571
1	1603	4572
1	1601	4573
1	1595	4574
1	1587	4575
1	1578	4576
1	1567	4577
1	1562	4578
1	1555	4579
1	1553	4580
1	1543	4581
1	1530	4582
1	1527	4583
1	1533	4584
1	1546	4585
1	1557	4586
1	1561	4587
1	1559	4588
1	1555	4589
1	1555	4590
1	1555	4591
1	1555	4592
1	1563	4593
1	1570	4594
1	1571	4595
1	1576	4596
1	1584	4597
1	1597	4598
1	1616	4599
1	1625	4600
1	1628	4601
1	1628	4602
1	1625	4603
1	1616	4604
1	1605	4605
1	1592	4606
1	1580	4607
1	1573	4608
1	1553	4609
1	1542	4610
1	1542	4611
1	1555	4612
1	1580	4613
1	1609	4614
1	1634	4615
1	1656	4616
1	1672	4617
1	1683	4618
1	1686	4619
1	1691	4620
1	1695	4621
1	1694	4622
1	1686	4623
1	1659	4624
1	1634	4625
1	1606	4626
1	1580	4627
1	1557	4628
1	1540	4629
1	1537	4630
1	1523	4631
1	1521	4632
1	1512	4633
1	1515	4634
1	1514	4635
1	1517	4636
1	1513	4637
1	1512	4638
1	1515	4639
1	1512	4640
1	1502	4641
1	1502	4642
1	1518	4643
1	1544	4644
1	1577	4645
1	1611	4646
1	1649	4647
1	1691	4648
1	1725	4649
1	1742	4650
1	1747	4651
1	1747	4652
1	1738	4653
1	1708	4654
1	1686	4655
1	1669	4656
1	1657	4657
1	1639	4658
1	1631	4659
1	1616	4660
1	1608	4661
1	1608	4662
1	1613	4663
1	1620	4664
1	1620	4665
1	1620	4666
1	1625	4667
1	1631	4668
1	1635	4669
1	1634	4670
1	1644	4671
1	1649	4672
1	1655	4673
1	1667	4674
1	1674	4675
1	1682	4676
1	1684	4677
1	1679	4678
1	1668	4679
1	1647	4700
1	1625	4701
1	1597	4702
1	1583	4703
1	1580	4704
1	1571	4705
1	1561	4706
1	1556	4707
1	1554	4708
1	1557	4709
1	1566	4710
1	1573	4711
1	1583	4712
1	1594	4713
1	1605	4714
1	1602	4715
1	1597	4716
1	1589	4717
1	1580	4718
1	1573	4719
1	1656	4680
1	1647	4681
1	1641	4682
1	1626	4683
1	1594	4684
1	1574	4685
1	1555	4686
1	1544	4687
1	1554	4688
1	1581	4689
1	1608	4690
1	1634	4691
1	1661	4692
1	1686	4693
1	1701	4694
1	1710	4695
1	1709	4696
1	1701	4697
1	1688	4698
1	1674	4699
1	1565	4720
1	1557	4721
1	1547	4722
1	1529	4723
1	1515	4724
1	1515	4725
1	1512	4726
1	1519	4727
1	1539	4728
1	1573	4729
1	1603	4730
1	1621	4731
1	1633	4732
1	1632	4733
1	1624	4734
1	1624	4735
1	1634	4736
1	1643	4737
1	1643	4738
1	1636	4739
1	1633	4740
1	1615	4741
1	1589	4742
1	1557	4743
1	1533	4744
1	1521	4745
1	1529	4746
1	1538	4747
1	1554	4748
1	1565	4749
1	1573	4750
1	1584	4751
1	1597	4752
1	1617	4753
1	1625	4754
1	1636	4755
1	1647	4756
1	1654	4757
1	1657	4758
1	1660	4759
1	1646	4760
1	1632	4761
1	1619	4762
1	1607	4763
1	1599	4764
1	1577	4765
1	1555	4766
1	1537	4767
1	1529	4768
1	1528	4769
1	1535	4770
1	1553	4771
1	1578	4772
1	1602	4773
1	1630	4774
1	1656	4775
1	1688	4776
1	1716	4777
1	1747	4778
1	1778	4779
1	1791	4780
1	1800	4781
1	1799	4782
1	1796	4783
1	1800	4784
1	1813	4785
1	1827	4786
1	1849	4787
1	1884	4788
1	1922	4789
1	1950	4790
1	1988	4791
1	2013	4792
1	2026	4793
1	2038	4794
1	2044	4795
1	2052	4796
1	2066	4797
1	2076	4798
1	2079	4799
1	2086	4800
1	2097	4801
1	2100	4802
1	2089	4803
1	2068	4804
1	2032	4805
1	2000	4806
1	1973	4807
1	1947	4808
1	1932	4809
1	1908	4810
1	1883	4811
1	1850	4812
1	1812	4813
1	1759	4814
1	1710	4815
1	1657	4816
1	1608	4817
1	1565	4818
1	1519	4819
1	1472	4820
1	1437	4821
1	1423	4822
1	1423	4823
1	1436	4824
1	1450	4825
1	1462	4826
1	1471	4827
1	1477	4828
1	1476	4829
1	1472	4830
1	1467	4831
1	1469	4832
1	1476	4833
1	1490	4834
1	1515	4835
1	1533	4836
1	1544	4837
1	1553	4838
1	1558	4839
1	1573	4840
1	1587	4841
1	1603	4842
1	1619	4843
1	1620	4844
1	1620	4845
1	1617	4846
1	1616	4847
1	1622	4848
1	1634	4849
1	1634	4850
1	1635	4851
1	1645	4852
1	1658	4853
1	1674	4854
1	1682	4855
1	1694	4856
1	1711	4857
1	1723	4858
1	1729	4859
1	1728	4860
1	1718	4861
1	1710	4862
1	1698	4863
1	1680	4864
1	1660	4865
1	1646	4866
1	1620	4867
1	1590	4868
1	1565	4869
1	1542	4870
1	1534	4871
1	1539	4872
1	1549	4873
1	1566	4874
1	1593	4875
1	1618	4876
1	1638	4877
1	1655	4878
1	1672	4879
1	1677	4880
1	1684	4881
1	1688	4882
1	1695	4883
1	1698	4884
1	1686	4885
1	1665	4886
1	1647	4887
1	1633	4888
1	1620	4889
1	1607	4890
1	1605	4891
1	1603	4892
1	1596	4893
1	1589	4894
1	1581	4895
1	1585	4896
1	1589	4897
1	1599	4898
1	1612	4899
1	1622	4900
1	1633	4901
1	1643	4902
1	1652	4903
1	1662	4904
1	1679	4905
1	1699	4906
1	1716	4907
1	1728	4908
1	1732	4909
1	1719	4910
1	1713	4911
1	1710	4912
1	1705	4913
1	1706	4914
1	1703	4915
1	1702	4916
1	1704	4917
1	1705	4918
1	1707	4919
1	1712	4920
1	1712	4921
1	1708	4922
1	1705	4923
1	1698	4924
1	1680	4925
1	1665	4926
1	1657	4927
1	1651	4928
1	1643	4929
1	1637	4930
1	1616	4931
1	1612	4932
1	1613	4933
1	1611	4934
1	1602	4935
1	1600	4936
1	1607	4937
1	1616	4938
1	1625	4939
1	1638	4940
1	1647	4941
1	1649	4942
1	1645	4943
1	1636	4944
1	1631	4945
1	1625	4946
1	1629	4947
1	1642	4948
1	1652	4949
1	1665	4950
1	1683	4951
1	1700	4952
1	1715	4953
1	1718	4954
1	1725	4955
1	1738	4956
1	1752	4957
1	1770	4958
1	1791	4959
1	1800	4960
1	1800	4961
1	1791	4962
1	1777	4963
1	1767	4964
1	1764	4965
1	1762	4966
1	1760	4967
1	1761	4968
1	1757	4969
1	1765	4970
1	1778	4971
1	1791	4972
1	1799	4973
1	1808	4974
1	1816	4975
1	1823	4976
1	1828	4977
1	1831	4978
1	1830	4979
1	1821	4980
1	1803	4981
1	1790	4982
1	1774	4983
1	1753	4984
1	1738	4985
1	1717	4986
1	1705	4987
1	1703	4988
1	1715	4989
1	1724	4990
1	1738	4991
1	1751	4992
1	1753	4993
1	1756	4994
1	1767	4995
1	1786	4996
1	1803	4997
1	1819	4998
1	1827	4999
1	1836	5000
1	1843	5001
1	1850	5002
1	1856	5003
1	1872	5004
1	1886	5005
1	1896	5006
1	1908	5007
1	1913	5008
1	1917	5009
1	1921	5010
1	1922	5011
1	1934	5012
1	1943	5013
1	1939	5014
1	1948	5015
1	1948	5016
1	1937	5017
1	1926	5018
1	1932	5019
1	1926	5020
1	1918	5021
1	1901	5022
1	1878	5023
1	1857	5024
1	1834	5025
1	1795	5026
1	1773	5027
1	1752	5028
1	1746	5029
1	1751	5030
1	1766	5031
1	1791	5032
1	1819	5033
1	1835	5034
1	1848	5035
1	1859	5036
1	1862	5037
1	1869	5038
1	1868	5039
1	1860	5040
1	1844	5041
1	1824	5042
1	1795	5043
1	1773	5044
1	1762	5045
1	1755	5046
1	1749	5047
1	1737	5048
1	1718	5049
1	1698	5050
1	1683	5051
1	1675	5052
1	1667	5053
1	1660	5054
1	1656	5055
1	1649	5056
1	1643	5057
1	1634	5058
1	1625	5059
1	1607	5060
1	1587	5061
1	1565	5062
1	1540	5063
1	1528	5064
1	1516	5065
1	1513	5066
1	1529	5067
1	1557	5068
1	1592	5069
1	1620	5070
1	1641	5071
1	1658	5072
1	1672	5073
1	1680	5074
1	1686	5075
1	1693	5076
1	1695	5077
1	1685	5078
1	1674	5079
1	1660	5080
1	1649	5081
1	1643	5082
1	1636	5083
1	1633	5084
1	1625	5085
1	1616	5086
1	1607	5087
1	1598	5088
1	1596	5089
1	1603	5090
1	1611	5091
1	1616	5092
1	1625	5093
1	1643	5094
1	1656	5095
1	1660	5096
1	1657	5097
1	1641	5098
1	1625	5099
1	1604	5100
1	1579	5101
1	1556	5102
1	1548	5103
1	1536	5104
1	1526	5105
1	1518	5106
1	1514	5107
1	1513	5108
1	1528	5109
1	1541	5110
1	1553	5111
1	1553	5112
1	1553	5113
1	1556	5114
1	1555	5115
1	1559	5116
1	1567	5117
1	1581	5118
1	1585	5119
1	1584	5120
1	1580	5121
1	1570	5122
1	1561	5123
1	1555	5124
1	1539	5125
1	1518	5126
1	1505	5127
1	1503	5128
1	1488	5129
1	1485	5130
1	1481	5131
1	1481	5132
1	1487	5133
1	1494	5134
1	1508	5135
1	1526	5136
1	1531	5137
1	1537	5138
1	1539	5139
1	1542	5140
1	1547	5141
1	1555	5142
1	1566	5143
1	1561	5144
1	1549	5145
1	1533	5146
1	1526	5147
1	1520	5148
1	1503	5149
1	1492	5150
1	1484	5151
1	1471	5152
1	1469	5153
1	1490	5154
1	1511	5155
1	1535	5156
1	1555	5157
1	1575	5158
1	1590	5159
1	1607	5160
1	1621	5161
1	1629	5162
1	1641	5163
1	1647	5164
1	1652	5165
1	1647	5166
1	1639	5167
1	1634	5168
1	1634	5169
1	1634	5170
1	1637	5171
1	1646	5172
1	1651	5173
1	1660	5174
1	1670	5175
1	1676	5176
1	1680	5177
1	1674	5178
1	1656	5179
1	1632	5180
1	1607	5181
1	1584	5182
1	1567	5183
1	1554	5184
1	1529	5185
1	1500	5186
1	1472	5187
1	1450	5188
1	1436	5189
1	1434	5190
1	1445	5191
1	1459	5192
1	1478	5193
1	1491	5194
1	1509	5195
1	1528	5196
1	1535	5197
1	1544	5198
1	1555	5199
1	1572	5200
1	1575	5201
1	1568	5202
1	1555	5203
1	1540	5204
1	1530	5205
1	1530	5206
1	1536	5207
1	1542	5208
1	1543	5209
1	1547	5210
1	1554	5211
1	1558	5212
1	1567	5213
1	1581	5214
1	1593	5215
1	1607	5216
1	1618	5217
1	1625	5218
1	1631	5219
1	1628	5220
1	1617	5221
1	1608	5222
1	1604	5223
1	1599	5224
1	1606	5225
1	1608	5226
1	1621	5227
1	1641	5228
1	1665	5229
1	1703	5230
1	1731	5231
1	1749	5232
1	1759	5233
1	1764	5234
1	1751	5235
1	1728	5236
1	1712	5237
1	1695	5238
1	1673	5239
1	1650	5240
1	1624	5241
1	1594	5242
1	1559	5243
1	1526	5244
1	1485	5245
1	1449	5246
1	1430	5247
1	1425	5248
1	1438	5249
1	1464	5250
1	1488	5251
1	1512	5252
1	1533	5253
1	1551	5254
1	1564	5255
1	1575	5256
1	1587	5257
1	1597	5258
1	1610	5259
1	1611	5260
1	1608	5261
1	1599	5262
1	1579	5263
1	1550	5264
1	1527	5265
1	1511	5266
1	1517	5267
1	1536	5268
1	1556	5269
1	1586	5270
1	1615	5271
1	1634	5272
1	1647	5273
1	1661	5274
1	1662	5275
1	1661	5276
1	1654	5277
1	1648	5278
1	1658	5279
1	1647	5300
1	1641	5301
1	1626	5302
1	1607	5303
1	1596	5304
1	1587	5305
1	1582	5306
1	1580	5307
1	1567	5308
1	1555	5309
1	1546	5310
1	1536	5311
1	1533	5312
1	1539	5313
1	1541	5314
1	1542	5315
1	1553	5316
1	1567	5317
1	1593	5318
1	1620	5319
1	1661	5280
1	1658	5281
1	1647	5282
1	1635	5283
1	1622	5284
1	1607	5285
1	1597	5286
1	1591	5287
1	1593	5288
1	1610	5289
1	1625	5290
1	1634	5291
1	1635	5292
1	1642	5293
1	1647	5294
1	1650	5295
1	1651	5296
1	1649	5297
1	1652	5298
1	1647	5299
1	1634	5320
1	1643	5321
1	1646	5322
1	1646	5323
1	1648	5324
1	1652	5325
1	1647	5326
1	1647	5327
1	1647	5328
1	1646	5329
1	1637	5330
1	1631	5331
1	1619	5332
1	1603	5333
1	1590	5334
1	1581	5335
1	1575	5336
1	1572	5337
1	1581	5338
1	1574	5339
1	1565	5340
1	1555	5341
1	1551	5342
1	1553	5343
1	1551	5344
1	1559	5345
1	1573	5346
1	1584	5347
1	1594	5348
1	1610	5349
1	1629	5350
1	1652	5351
1	1680	5352
1	1698	5353
1	1703	5354
1	1704	5355
1	1706	5356
1	1706	5357
1	1699	5358
1	1686	5359
1	1682	5360
1	1683	5361
1	1686	5362
1	1690	5363
1	1698	5364
1	1694	5365
1	1686	5366
1	1674	5367
1	1658	5368
1	1632	5369
1	1602	5370
1	1577	5371
1	1557	5372
1	1559	5373
1	1566	5374
1	1581	5375
1	1602	5376
1	1633	5377
1	1660	5378
1	1688	5379
1	1592	5400
1	1587	5401
1	1590	5402
1	1594	5403
1	1596	5404
1	1603	5405
1	1607	5406
1	1613	5407
1	1622	5408
1	1634	5409
1	1641	5410
1	1646	5411
1	1647	5412
1	1649	5413
1	1651	5414
1	1645	5415
1	1641	5416
1	1643	5417
1	1638	5418
1	1620	5419
1	1705	5380
1	1712	5381
1	1718	5382
1	1721	5383
1	1719	5384
1	1712	5385
1	1701	5386
1	1688	5387
1	1671	5388
1	1660	5389
1	1660	5390
1	1659	5391
1	1652	5392
1	1646	5393
1	1641	5394
1	1631	5395
1	1616	5396
1	1608	5397
1	1603	5398
1	1600	5399
1	1592	5420
1	1563	5421
1	1541	5422
1	1528	5423
1	1530	5424
1	1545	5425
1	1562	5426
1	1569	5427
1	1580	5428
1	1581	5429
1	1581	5430
1	1597	5431
1	1621	5432
1	1652	5433
1	1681	5434
1	1705	5435
1	1717	5436
1	1723	5437
1	1724	5438
1	1719	5439
1	1712	5440
1	1697	5441
1	1680	5442
1	1665	5443
1	1647	5444
1	1637	5445
1	1634	5446
1	1638	5447
1	1636	5448
1	1626	5449
1	1626	5450
1	1629	5451
1	1634	5452
1	1639	5453
1	1647	5454
1	1644	5455
1	1641	5456
1	1642	5457
1	1647	5458
1	1658	5459
1	1670	5480
1	1682	5481
1	1685	5482
1	1681	5483
1	1661	5484
1	1647	5485
1	1637	5486
1	1635	5487
1	1638	5488
1	1657	5489
1	1674	5490
1	1688	5491
1	1712	5492
1	1746	5493
1	1788	5494
1	1834	5495
1	1869	5496
1	1907	5497
1	1944	5498
1	1965	5499
1	1992	5480
1	2014	5481
1	2035	5482
1	2057	5483
1	2093	5484
1	2131	5485
1	2173	5486
1	2215	5487
1	2262	5488
1	2288	5489
1	2302	5490
1	2299	5491
1	2287	5492
1	2262	5493
1	2210	5494
1	2159	5495
1	2109	5496
1	2057	5497
1	1998	5498
1	1931	5499
1	1854	5500
1	1766	5501
1	1686	5502
1	1609	5503
1	1544	5504
1	1499	5505
1	1476	5506
1	1469	5507
1	1477	5508
1	1494	5509
1	1517	5510
1	1531	5511
1	1539	5512
1	1540	5513
1	1536	5514
1	1523	5515
1	1513	5516
1	1508	5517
1	1516	5518
1	1529	5519
1	1536	5520
1	1542	5521
1	1551	5522
1	1563	5523
1	1574	5524
1	1592	5525
1	1612	5526
1	1634	5527
1	1641	5528
1	1637	5529
1	1638	5530
1	1635	5531
1	1643	5532
1	1641	5533
1	1643	5534
1	1647	5535
1	1647	5536
1	1638	5537
1	1621	5538
1	1598	5539
1	1587	5540
1	1577	5541
1	1559	5542
1	1544	5543
1	1544	5544
1	1553	5545
1	1563	5546
1	1580	5547
1	1591	5548
1	1608	5549
1	1638	5550
1	1662	5551
1	1685	5552
1	1703	5553
1	1705	5554
1	1695	5555
1	1687	5556
1	1678	5557
1	1660	5558
1	1647	5559
1	1632	5560
1	1620	5561
1	1617	5562
1	1621	5563
1	1621	5564
1	1625	5565
1	1634	5566
1	1652	5567
1	1685	5568
1	1707	5569
1	1726	5570
1	1738	5571
1	1738	5572
1	1739	5573
1	1741	5574
1	1737	5575
1	1726	5576
1	1713	5577
1	1688	5578
1	1660	5579
1	1634	5580
1	1621	5581
1	1617	5582
1	1610	5583
1	1607	5584
1	1607	5585
1	1609	5586
1	1611	5587
1	1616	5588
1	1629	5589
1	1641	5590
1	1656	5591
1	1675	5592
1	1692	5593
1	1706	5594
1	1715	5595
1	1720	5596
1	1719	5597
1	1714	5598
1	1698	5599
1	1684	5600
1	1669	5601
1	1657	5602
1	1642	5603
1	1639	5604
1	1634	5605
1	1638	5606
1	1651	5607
1	1661	5608
1	1663	5609
1	1668	5610
1	1681	5611
1	1701	5612
1	1724	5613
1	1737	5614
1	1751	5615
1	1754	5616
1	1751	5617
1	1735	5618
1	1717	5619
1	1699	5620
1	1686	5621
1	1673	5622
1	1660	5623
1	1634	5624
1	1607	5625
1	1582	5626
1	1584	5627
1	1597	5628
1	1620	5629
1	1641	5630
1	1665	5631
1	1697	5632
1	1726	5633
1	1763	5634
1	1787	5635
1	1794	5636
1	1794	5637
1	1800	5638
1	1795	5639
1	1782	5640
1	1764	5641
1	1749	5642
1	1739	5643
1	1730	5644
1	1727	5645
1	1724	5646
1	1720	5647
1	1710	5648
1	1700	5649
1	1680	5650
1	1661	5651
1	1658	5652
1	1657	5653
1	1661	5654
1	1669	5655
1	1685	5656
1	1706	5657
1	1733	5658
1	1750	5659
1	1766	5660
1	1782	5661
1	1802	5662
1	1830	5663
1	1847	5664
1	1855	5665
1	1856	5666
1	1855	5667
1	1853	5668
1	1850	5669
1	1842	5670
1	1833	5671
1	1832	5672
1	1839	5673
1	1842	5674
1	1845	5675
1	1850	5676
1	1852	5677
1	1843	5678
1	1836	5679
1	1818	5680
1	1801	5681
1	1791	5682
1	1787	5683
1	1783	5684
1	1783	5685
1	1790	5686
1	1802	5687
1	1824	5688
1	1837	5689
1	1845	5690
1	1851	5691
1	1850	5692
1	1854	5693
1	1868	5694
1	1874	5695
1	1877	5696
1	1869	5697
1	1856	5698
1	1848	5699
1	1848	5700
1	1854	5701
1	1859	5702
1	1868	5703
1	1870	5704
1	1878	5705
1	1880	5706
1	1869	5707
1	1859	5708
1	1857	5709
1	1854	5710
1	1852	5711
1	1856	5712
1	1862	5713
1	1866	5714
1	1862	5715
1	1854	5716
1	1843	5717
1	1834	5718
1	1819	5719
1	1814	5720
1	1792	5721
1	1777	5722
1	1772	5723
1	1773	5724
1	1773	5725
1	1773	5726
1	1769	5727
1	1790	5728
1	1809	5729
1	1818	5730
1	1822	5731
1	1821	5732
1	1817	5733
1	1803	5734
1	1794	5735
1	1787	5736
1	1773	5737
1	1764	5738
1	1744	5739
1	1724	5740
1	1711	5741
1	1701	5742
1	1692	5743
1	1674	5744
1	1660	5745
1	1652	5746
1	1652	5747
1	1652	5748
1	1657	5749
1	1665	5750
1	1683	5751
1	1700	5752
1	1717	5753
1	1742	5754
1	1750	5755
1	1739	5756
1	1727	5757
1	1712	5758
1	1700	5759
1	1691	5760
1	1688	5761
1	1692	5762
1	1695	5763
1	1687	5764
1	1682	5765
1	1669	5766
1	1647	5767
1	1621	5768
1	1598	5769
1	1573	5770
1	1559	5771
1	1557	5772
1	1561	5773
1	1567	5774
1	1580	5775
1	1584	5776
1	1583	5777
1	1569	5778
1	1549	5779
1	1533	5780
1	1530	5781
1	1530	5782
1	1529	5783
1	1539	5784
1	1553	5785
1	1571	5786
1	1593	5787
1	1609	5788
1	1615	5789
1	1608	5790
1	1605	5791
1	1605	5792
1	1611	5793
1	1618	5794
1	1632	5795
1	1634	5796
1	1626	5797
1	1620	5798
1	1624	5799
1	1615	5800
1	1607	5801
1	1590	5802
1	1576	5803
1	1562	5804
1	1559	5805
1	1567	5806
1	1593	5807
1	1615	5808
1	1626	5809
1	1631	5810
1	1631	5811
1	1620	5812
1	1603	5813
1	1594	5814
1	1586	5815
1	1581	5816
1	1584	5817
1	1586	5818
1	1580	5819
1	1563	5820
1	1542	5821
1	1530	5822
1	1521	5823
1	1512	5824
1	1507	5825
1	1500	5826
1	1490	5827
1	1487	5828
1	1486	5829
1	1497	5830
1	1513	5831
1	1548	5832
1	1574	5833
1	1589	5834
1	1599	5835
1	1607	5836
1	1607	5837
1	1608	5838
1	1603	5839
1	1595	5840
1	1582	5841
1	1565	5842
1	1546	5843
1	1531	5844
1	1518	5845
1	1506	5846
1	1508	5847
1	1521	5848
1	1549	5849
1	1585	5850
1	1620	5851
1	1644	5852
1	1656	5853
1	1648	5854
1	1638	5855
1	1631	5856
1	1622	5857
1	1620	5858
1	1622	5859
1	1618	5860
1	1607	5861
1	1587	5862
1	1564	5863
1	1545	5864
1	1529	5865
1	1521	5866
1	1517	5867
1	1521	5868
1	1521	5869
1	1530	5870
1	1556	5871
1	1581	5872
1	1607	5873
1	1643	5874
1	1664	5875
1	1679	5876
1	1680	5877
1	1670	5878
1	1647	5879
1	1618	5880
1	1590	5881
1	1566	5882
1	1540	5883
1	1517	5884
1	1503	5885
1	1500	5886
1	1499	5887
1	1503	5888
1	1518	5889
1	1537	5890
1	1557	5891
1	1582	5892
1	1609	5893
1	1634	5894
1	1649	5895
1	1661	5896
1	1660	5897
1	1647	5898
1	1626	5899
1	1607	5900
1	1594	5901
1	1585	5902
1	1584	5903
1	1585	5904
1	1578	5905
1	1561	5906
1	1542	5907
1	1527	5908
1	1522	5909
1	1529	5910
1	1543	5911
1	1566	5912
1	1592	5913
1	1607	5914
1	1621	5915
1	1629	5916
1	1631	5917
1	1634	5918
1	1641	5919
1	1638	5920
1	1634	5921
1	1626	5922
1	1622	5923
1	1618	5924
1	1608	5925
1	1593	5926
1	1587	5927
1	1580	5928
1	1566	5929
1	1556	5930
1	1549	5931
1	1544	5932
1	1547	5933
1	1553	5934
1	1557	5935
1	1573	5936
1	1582	5937
1	1602	5938
1	1618	5939
1	1622	5940
1	1621	5941
1	1620	5942
1	1620	5943
1	1622	5944
1	1628	5945
1	1628	5946
1	1623	5947
1	1619	5948
1	1620	5949
1	1610	5950
1	1603	5951
1	1603	5952
1	1607	5953
1	1613	5954
1	1629	5955
1	1637	5956
1	1644	5957
1	1647	5958
1	1640	5959
1	1634	5960
1	1628	5961
1	1616	5962
1	1610	5963
1	1613	5964
1	1615	5965
1	1613	5966
1	1616	5967
1	1623	5968
1	1635	5969
1	1651	5970
1	1662	5971
1	1669	5972
1	1668	5973
1	1659	5974
1	1649	5975
1	1643	5976
1	1632	5977
1	1625	5978
1	1625	5979
1	1611	5980
1	1592	5981
1	1567	5982
1	1544	5983
1	1525	5984
1	1515	5985
1	1517	5986
1	1529	5987
1	1535	5988
1	1533	5989
1	1531	5990
1	1538	5991
1	1553	5992
1	1577	5993
1	1610	5994
1	1638	5995
1	1667	5996
1	1691	5997
1	1703	5998
1	1702	5999
1	1696	6000
1	1681	6001
1	1652	6002
1	1615	6003
1	1580	6004
1	1540	6005
1	1514	6006
1	1503	6007
1	1508	6008
1	1533	6009
1	1550	6010
1	1562	6011
1	1574	6012
1	1578	6013
1	1581	6014
1	1595	6015
1	1611	6016
1	1624	6017
1	1636	6018
1	1647	6019
1	1661	6020
1	1672	6021
1	1674	6022
1	1667	6023
1	1656	6024
1	1634	6025
1	1607	6026
1	1593	6027
1	1583	6028
1	1571	6029
1	1569	6030
1	1575	6031
1	1581	6032
1	1590	6033
1	1602	6034
1	1615	6035
1	1638	6036
1	1657	6037
1	1669	6038
1	1681	6039
1	1687	6040
1	1690	6041
1	1681	6042
1	1670	6043
1	1647	6044
1	1626	6045
1	1608	6046
1	1594	6047
1	1583	6048
1	1579	6049
1	1584	6050
1	1595	6051
1	1612	6052
1	1636	6053
1	1669	6054
1	1695	6055
1	1710	6056
1	1718	6057
1	1719	6058
1	1707	6059
1	1687	6060
1	1669	6061
1	1654	6062
1	1634	6063
1	1605	6064
1	1589	6065
1	1579	6066
1	1574	6067
1	1580	6068
1	1596	6069
1	1616	6070
1	1642	6071
1	1659	6072
1	1668	6073
1	1682	6074
1	1700	6075
1	1713	6076
1	1713	6077
1	1700	6078
1	1674	6079
1	1646	6080
1	1637	6081
1	1634	6082
1	1639	6083
1	1647	6084
1	1649	6085
1	1657	6086
1	1652	6087
1	1651	6088
1	1643	6089
1	1634	6090
1	1632	6091
1	1628	6092
1	1621	6093
1	1611	6094
1	1618	6095
1	1623	6096
1	1633	6097
1	1634	6098
1	1644	6099
1	1639	6100
1	1633	6101
1	1620	6102
1	1600	6103
1	1578	6104
1	1554	6105
1	1533	6106
1	1528	6107
1	1533	6108
1	1546	6109
1	1572	6110
1	1596	6111
1	1616	6112
1	1629	6113
1	1643	6114
1	1644	6115
1	1634	6116
1	1615	6117
1	1592	6118
1	1579	6119
1	1578	6120
1	1585	6121
1	1595	6122
1	1600	6123
1	1596	6124
1	1595	6125
1	1607	6126
1	1622	6127
1	1636	6128
1	1646	6129
1	1652	6130
1	1638	6131
1	1643	6132
1	1661	6133
1	1679	6134
1	1695	6135
1	1703	6136
1	1707	6137
1	1701	6138
1	1684	6139
1	1665	6140
1	1647	6141
1	1629	6142
1	1607	6143
1	1598	6144
1	1585	6145
1	1572	6146
1	1556	6147
1	1546	6148
1	1546	6149
1	1547	6150
1	1553	6151
1	1561	6152
1	1571	6153
1	1577	6154
1	1590	6155
1	1607	6156
1	1620	6157
1	1634	6158
1	1660	6159
1	1672	6160
1	1683	6161
1	1686	6162
1	1685	6163
1	1679	6164
1	1674	6165
1	1674	6166
1	1679	6167
1	1694	6168
1	1713	6169
1	1750	6170
1	1790	6171
1	1824	6172
1	1849	6173
1	1890	6174
1	1922	6175
1	1956	6176
1	1989	6177
1	2017	6178
1	2040	6179
1	2066	6180
1	2093	6181
1	2118	6182
1	2135	6183
1	2149	6184
1	2158	6185
1	2161	6186
1	2156	6187
1	2136	6188
1	2120	6189
1	2091	6190
1	2061	6191
1	2025	6192
1	1986	6193
1	1948	6194
1	1910	6195
1	1869	6196
1	1820	6197
1	1765	6198
1	1712	6199
1	1660	6200
1	1620	6201
1	1581	6202
1	1541	6203
1	1521	6204
1	1503	6205
1	1494	6206
1	1503	6207
1	1523	6208
1	1542	6209
1	1561	6210
1	1579	6211
1	1600	6212
1	1623	6213
1	1636	6214
1	1647	6215
1	1647	6216
1	1646	6217
1	1638	6218
1	1639	6219
1	1625	6220
1	1602	6221
1	1577	6222
1	1555	6223
1	1539	6224
1	1528	6225
1	1517	6226
1	1508	6227
1	1508	6228
1	1515	6229
1	1529	6230
1	1540	6231
1	1557	6232
1	1576	6233
1	1603	6234
1	1623	6235
1	1644	6236
1	1664	6237
1	1689	6238
1	1704	6239
1	1712	6240
1	1710	6241
1	1699	6242
1	1688	6243
1	1675	6244
1	1664	6245
1	1647	6246
1	1628	6247
1	1608	6248
1	1622	6249
1	1634	6250
1	1639	6251
1	1641	6252
1	1634	6253
1	1612	6254
1	1595	6255
1	1580	6256
1	1562	6257
1	1548	6258
1	1539	6259
1	1542	6260
1	1555	6261
1	1566	6262
1	1581	6263
1	1616	6264
1	1642	6265
1	1664	6266
1	1678	6267
1	1687	6268
1	1699	6269
1	1707	6270
1	1705	6271
1	1695	6272
1	1685	6273
1	1665	6274
1	1651	6275
1	1638	6276
1	1634	6277
1	1631	6278
1	1644	6279
1	1648	6280
1	1660	6281
1	1671	6282
1	1682	6283
1	1682	6284
1	1685	6285
1	1687	6286
1	1691	6287
1	1686	6288
1	1683	6289
1	1681	6290
1	1685	6291
1	1685	6292
1	1674	6293
1	1660	6294
1	1643	6295
1	1630	6296
1	1619	6297
1	1611	6298
1	1607	6299
1	1594	6300
1	1591	6301
1	1595	6302
1	1598	6303
1	1599	6304
1	1605	6305
1	1611	6306
1	1623	6307
1	1634	6308
1	1660	6309
1	1669	6310
1	1675	6311
1	1677	6312
1	1675	6313
1	1679	6314
1	1681	6315
1	1675	6316
1	1678	6317
1	1684	6318
1	1689	6319
1	1698	6320
1	1703	6321
1	1710	6322
1	1716	6323
1	1731	6324
1	1734	6325
1	1724	6326
1	1698	6327
1	1686	6328
1	1670	6329
1	1660	6330
1	1661	6331
1	1675	6332
1	1697	6333
1	1716	6334
1	1742	6335
1	1759	6336
1	1769	6337
1	1766	6338
1	1764	6339
1	1746	6340
1	1726	6341
1	1706	6342
1	1689	6343
1	1664	6344
1	1639	6345
1	1616	6346
1	1607	6347
1	1608	6348
1	1622	6349
1	1647	6350
1	1679	6351
1	1705	6352
1	1729	6353
1	1769	6354
1	1788	6355
1	1796	6356
1	1803	6357
1	1812	6358
1	1811	6359
1	1802	6360
1	1803	6361
1	1817	6362
1	1836	6363
1	1847	6364
1	1856	6365
1	1856	6366
1	1856	6367
1	1845	6368
1	1853	6369
1	1847	6370
1	1841	6371
1	1827	6372
1	1818	6373
1	1815	6374
1	1809	6375
1	1802	6376
1	1802	6377
1	1796	6378
1	1787	6379
1	1779	6380
1	1766	6381
1	1751	6382
1	1742	6383
1	1751	6384
1	1752	6385
1	1755	6386
1	1760	6387
1	1768	6388
1	1790	6389
1	1818	6390
1	1843	6391
1	1870	6392
1	1895	6393
1	1908	6394
1	1921	6395
1	1926	6396
1	1926	6397
1	1915	6398
1	1913	6399
1	1900	6400
1	1891	6401
1	1878	6402
1	1868	6403
1	1856	6404
1	1849	6405
1	1845	6406
1	1854	6407
1	1867	6408
1	1868	6409
1	1869	6410
1	1870	6411
1	1872	6412
1	1867	6413
1	1869	6414
1	1862	6415
1	1856	6416
1	1852	6417
1	1850	6418
1	1858	6419
1	1764	6440
1	1760	6441
1	1751	6442
1	1737	6443
1	1727	6444
1	1710	6445
1	1699	6446
1	1708	6447
1	1712	6448
1	1715	6449
1	1728	6450
1	1728	6451
1	1712	6452
1	1685	6453
1	1641	6454
1	1606	6455
1	1569	6456
1	1542	6457
1	1517	6458
1	1510	6459
1	1869	6420
1	1873	6421
1	1874	6422
1	1869	6423
1	1849	6424
1	1822	6425
1	1791	6426
1	1773	6427
1	1764	6428
1	1754	6429
1	1755	6430
1	1751	6431
1	1738	6432
1	1742	6433
1	1739	6434
1	1739	6435
1	1739	6436
1	1744	6437
1	1760	6438
1	1764	6439
1	1608	6480
1	1607	6481
1	1613	6482
1	1622	6483
1	1620	6484
1	1613	6485
1	1606	6486
1	1593	6487
1	1578	6488
1	1580	6489
1	1573	6490
1	1563	6491
1	1554	6492
1	1540	6493
1	1525	6494
1	1504	6495
1	1498	6496
1	1494	6497
1	1491	6498
1	1485	6499
1	1485	6500
1	1502	6501
1	1511	6502
1	1512	6503
1	1529	6504
1	1539	6505
1	1555	6506
1	1571	6507
1	1596	6508
1	1620	6509
1	1637	6510
1	1638	6511
1	1629	6512
1	1616	6513
1	1609	6514
1	1619	6515
1	1634	6516
1	1645	6517
1	1646	6518
1	1658	6519
1	1484	6460
1	1463	6461
1	1456	6462
1	1466	6463
1	1485	6464
1	1503	6465
1	1523	6466
1	1541	6467
1	1563	6468
1	1586	6469
1	1618	6470
1	1638	6471
1	1654	6472
1	1660	6473
1	1681	6474
1	1680	6475
1	1674	6476
1	1662	6477
1	1649	6478
1	1631	6479
1	1654	6520
1	1648	6521
1	1636	6522
1	1613	6523
1	1587	6524
1	1561	6525
1	1540	6526
1	1519	6527
1	1512	6528
1	1514	6529
1	1523	6530
1	1539	6531
1	1549	6532
1	1555	6533
1	1554	6534
1	1546	6535
1	1539	6536
1	1533	6537
1	1535	6538
1	1526	6539
1	1590	6560
1	1587	6561
1	1574	6562
1	1538	6563
1	1511	6564
1	1477	6565
1	1450	6566
1	1430	6567
1	1424	6568
1	1437	6569
1	1452	6570
1	1476	6571
1	1497	6572
1	1515	6573
1	1525	6574
1	1530	6575
1	1539	6576
1	1548	6577
1	1561	6578
1	1590	6579
1	1616	6580
1	1647	6581
1	1679	6582
1	1698	6583
1	1700	6584
1	1696	6585
1	1680	6586
1	1660	6587
1	1637	6588
1	1616	6589
1	1597	6590
1	1595	6591
1	1602	6592
1	1605	6593
1	1619	6594
1	1631	6595
1	1646	6596
1	1660	6597
1	1675	6598
1	1687	6599
1	1517	6540
1	1512	6541
1	1512	6542
1	1518	6543
1	1520	6544
1	1524	6545
1	1519	6546
1	1513	6547
1	1503	6548
1	1517	6549
1	1521	6550
1	1527	6551
1	1531	6552
1	1542	6553
1	1556	6554
1	1574	6555
1	1589	6556
1	1597	6557
1	1602	6558
1	1594	6559
1	1688	6600
1	1688	6601
1	1682	6602
1	1660	6603
1	1631	6604
1	1602	6605
1	1581	6606
1	1555	6607
1	1529	6608
1	1525	6609
1	1512	6610
1	1503	6611
1	1505	6612
1	1521	6613
1	1539	6614
1	1554	6615
1	1568	6616
1	1581	6617
1	1584	6618
1	1581	6619
1	1577	6620
1	1579	6621
1	1582	6622
1	1589	6623
1	1600	6624
1	1603	6625
1	1602	6626
1	1585	6627
1	1574	6628
1	1561	6629
1	1559	6630
1	1554	6631
1	1543	6632
1	1530	6633
1	1524	6634
1	1517	6635
1	1512	6636
1	1517	6637
1	1529	6638
1	1541	6639
1	1540	6640
1	1531	6641
1	1529	6642
1	1531	6643
1	1533	6644
1	1549	6645
1	1570	6646
1	1590	6647
1	1607	6648
1	1607	6649
1	1614	6650
1	1629	6651
1	1634	6652
1	1625	6653
1	1623	6654
1	1611	6655
1	1599	6656
1	1594	6657
1	1600	6658
1	1617	6659
1	1641	6660
1	1665	6661
1	1685	6662
1	1697	6663
1	1702	6664
1	1710	6665
1	1710	6666
1	1695	6667
1	1671	6668
1	1656	6669
1	1638	6670
1	1625	6671
1	1611	6672
1	1607	6673
1	1609	6674
1	1618	6675
1	1619	6676
1	1621	6677
1	1625	6678
1	1616	6679
1	1608	6680
1	1602	6681
1	1593	6682
1	1580	6683
1	1581	6684
1	1580	6685
1	1574	6686
1	1564	6687
1	1556	6688
1	1555	6689
1	1559	6690
1	1570	6691
1	1581	6692
1	1596	6693
1	1603	6694
1	1607	6695
1	1618	6696
1	1623	6697
1	1625	6698
1	1634	6699
1	1633	6700
1	1645	6701
1	1660	6702
1	1672	6703
1	1670	6704
1	1660	6705
1	1654	6706
1	1649	6707
1	1649	6708
1	1643	6709
1	1647	6710
1	1660	6711
1	1674	6712
1	1686	6713
1	1705	6714
1	1701	6715
1	1684	6716
1	1662	6717
1	1636	6718
1	1610	6719
1	1592	6720
1	1571	6721
1	1551	6722
1	1535	6723
1	1528	6724
1	1536	6725
1	1560	6726
1	1584	6727
1	1607	6728
1	1629	6729
1	1658	6730
1	1670	6731
1	1676	6732
1	1684	6733
1	1688	6734
1	1691	6735
1	1689	6736
1	1686	6737
1	1683	6738
1	1667	6739
1	1646	6740
1	1611	6741
1	1582	6742
1	1566	6743
1	1559	6744
1	1561	6745
1	1569	6746
1	1592	6747
1	1620	6748
1	1654	6749
1	1680	6750
1	1698	6751
1	1714	6752
1	1738	6753
1	1751	6754
1	1764	6755
1	1772	6756
1	1764	6757
1	1751	6758
1	1738	6759
1	1722	6760
1	1705	6761
1	1686	6762
1	1664	6763
1	1647	6764
1	1638	6765
1	1638	6766
1	1643	6767
1	1646	6768
1	1638	6769
1	1639	6770
1	1651	6771
1	1657	6772
1	1660	6773
1	1667	6774
1	1683	6775
1	1700	6776
1	1712	6777
1	1716	6778
1	1721	6779
1	1715	6780
1	1710	6781
1	1708	6782
1	1711	6783
1	1711	6784
1	1712	6785
1	1715	6786
1	1715	6787
1	1717	6788
1	1721	6789
1	1713	6790
1	1710	6791
1	1704	6792
1	1695	6793
1	1685	6794
1	1667	6795
1	1644	6796
1	1618	6797
1	1582	6798
1	1554	6799
1	1538	6800
1	1529	6801
1	1521	6802
1	1520	6803
1	1521	6804
1	1516	6805
1	1503	6806
1	1497	6807
1	1491	6808
1	1493	6809
1	1494	6810
1	1503	6811
1	1521	6812
1	1551	6813
1	1585	6814
1	1625	6815
1	1660	6816
1	1679	6817
1	1697	6818
1	1705	6819
1	1708	6820
1	1703	6821
1	1700	6822
1	1699	6823
1	1696	6824
1	1688	6825
1	1683	6826
1	1664	6827
1	1652	6828
1	1647	6829
1	1648	6830
1	1648	6831
1	1649	6832
1	1656	6833
1	1653	6834
1	1651	6835
1	1648	6836
1	1643	6837
1	1632	6838
1	1609	6839
1	1597	6840
1	1586	6841
1	1576	6842
1	1570	6843
1	1566	6844
1	1574	6845
1	1595	6846
1	1628	6847
1	1658	6848
1	1687	6849
1	1712	6850
1	1734	6851
1	1740	6852
1	1746	6853
1	1742	6854
1	1743	6855
1	1743	6856
1	1747	6857
1	1759	6858
1	1764	6859
1	1765	6860
1	1766	6861
1	1766	6862
1	1772	6863
1	1787	6864
1	1796	6865
1	1817	6866
1	1831	6867
1	1843	6868
1	1848	6869
1	1854	6870
1	1859	6871
1	1869	6872
1	1890	6873
1	1908	6874
1	1934	6875
1	1960	6876
1	1984	6877
1	2017	6878
1	2060	6879
1	2093	6880
1	2115	6881
1	2121	6882
1	2118	6883
1	2104	6884
1	2088	6885
1	2070	6886
1	2052	6887
1	2026	6888
1	1999	6889
1	1970	6890
1	1944	6891
1	1914	6892
1	1875	6893
1	1834	6894
1	1764	6895
1	1697	6896
1	1622	6897
1	1553	6898
1	1485	6899
1	1439	6900
1	1413	6901
1	1395	6902
1	1374	6903
1	1373	6904
1	1402	6905
1	1437	6906
1	1463	6907
1	1481	6908
1	1508	6909
1	1535	6910
1	1561	6911
1	1583	6912
1	1601	6913
1	1616	6914
1	1637	6915
1	1657	6916
1	1668	6917
1	1673	6918
1	1674	6919
1	1674	6920
1	1669	6921
1	1655	6922
1	1634	6923
1	1612	6924
1	1582	6925
1	1555	6926
1	1526	6927
1	1516	6928
1	1503	6929
1	1499	6930
1	1511	6931
1	1530	6932
1	1555	6933
1	1580	6934
1	1602	6935
1	1617	6936
1	1625	6937
1	1631	6938
1	1622	6939
1	1717	6960
1	1720	6961
1	1718	6962
1	1710	6963
1	1681	6964
1	1647	6965
1	1612	6966
1	1585	6967
1	1580	6968
1	1590	6969
1	1615	6970
1	1636	6971
1	1652	6972
1	1661	6973
1	1664	6974
1	1660	6975
1	1652	6976
1	1638	6977
1	1634	6978
1	1626	6979
1	1621	6940
1	1629	6941
1	1634	6942
1	1638	6943
1	1638	6944
1	1634	6945
1	1621	6946
1	1611	6947
1	1607	6948
1	1598	6949
1	1590	6950
1	1583	6951
1	1583	6952
1	1597	6953
1	1625	6954
1	1647	6955
1	1674	6956
1	1696	6957
1	1707	6958
1	1712	6959
1	1623	6980
1	1619	6981
1	1611	6982
1	1607	6983
1	1610	6984
1	1616	6985
1	1629	6986
1	1646	6987
1	1672	6988
1	1699	6989
1	1716	6990
1	1724	6991
1	1721	6992
1	1718	6993
1	1705	6994
1	1687	6995
1	1664	6996
1	1638	6997
1	1615	6998
1	1599	6999
1	1580	7000
1	1564	7001
1	1556	7002
1	1569	7003
1	1590	7004
1	1610	7005
1	1631	7006
1	1649	7007
1	1668	7008
1	1682	7009
1	1688	7010
1	1692	7011
1	1690	7012
1	1690	7013
1	1701	7014
1	1710	7015
1	1712	7016
1	1709	7017
1	1701	7018
1	1701	7019
1	1716	7040
1	1710	7041
1	1698	7042
1	1686	7043
1	1671	7044
1	1663	7045
1	1663	7046
1	1674	7047
1	1671	7048
1	1671	7049
1	1680	7050
1	1699	7051
1	1733	7052
1	1770	7053
1	1803	7054
1	1842	7055
1	1861	7056
1	1869	7057
1	1862	7058
1	1853	7059
1	1703	7020
1	1712	7021
1	1713	7022
1	1714	7023
1	1710	7024
1	1705	7025
1	1701	7026
1	1698	7027
1	1695	7028
1	1693	7029
1	1706	7030
1	1714	7031
1	1726	7032
1	1727	7033
1	1728	7034
1	1725	7035
1	1724	7036
1	1728	7037
1	1738	7038
1	1733	7039
1	1835	7060
1	1817	7061
1	1798	7062
1	1787	7063
1	1778	7064
1	1764	7065
1	1751	7066
1	1747	7067
1	1760	7068
1	1771	7069
1	1792	7070
1	1817	7071
1	1836	7072
1	1852	7073
1	1874	7074
1	1888	7075
1	1893	7076
1	1893	7077
1	1890	7078
1	1880	7079
1	1802	7100
1	1794	7101
1	1791	7102
1	1791	7103
1	1801	7104
1	1812	7105
1	1827	7106
1	1835	7107
1	1843	7108
1	1856	7109
1	1877	7110
1	1897	7111
1	1922	7112
1	1944	7113
1	1947	7114
1	1943	7115
1	1926	7116
1	1911	7117
1	1890	7118
1	1866	7119
1	1868	7080
1	1855	7081
1	1843	7082
1	1840	7083
1	1838	7084
1	1847	7085
1	1857	7086
1	1860	7087
1	1857	7088
1	1859	7089
1	1856	7090
1	1848	7091
1	1844	7092
1	1847	7093
1	1848	7094
1	1843	7095
1	1834	7096
1	1827	7097
1	1819	7098
1	1814	7099
1	1838	7120
1	1798	7121
1	1773	7122
1	1764	7123
1	1769	7124
1	1778	7125
1	1787	7126
1	1783	7127
1	1785	7128
1	1787	7129
1	1786	7130
1	1774	7131
1	1764	7132
1	1751	7133
1	1737	7134
1	1717	7135
1	1700	7136
1	1683	7137
1	1679	7138
1	1662	7139
1	1649	7140
1	1634	7141
1	1631	7142
1	1623	7143
1	1616	7144
1	1626	7145
1	1643	7146
1	1667	7147
1	1695	7148
1	1733	7149
1	1757	7150
1	1780	7151
1	1796	7152
1	1808	7153
1	1800	7154
1	1787	7155
1	1764	7156
1	1737	7157
1	1704	7158
1	1667	7159
1	1643	7160
1	1617	7161
1	1585	7162
1	1549	7163
1	1517	7164
1	1481	7165
1	1461	7166
1	1449	7167
1	1442	7168
1	1443	7169
1	1450	7170
1	1464	7171
1	1488	7172
1	1506	7173
1	1520	7174
1	1546	7175
1	1577	7176
1	1605	7177
1	1631	7178
1	1656	7179
1	1668	7180
1	1673	7181
1	1668	7182
1	1660	7183
1	1643	7184
1	1616	7185
1	1593	7186
1	1574	7187
1	1561	7188
1	1559	7189
1	1568	7190
1	1580	7191
1	1581	7192
1	1586	7193
1	1594	7194
1	1594	7195
1	1592	7196
1	1586	7197
1	1579	7198
1	1561	7199
1	1543	7200
1	1520	7201
1	1497	7202
1	1477	7203
1	1450	7204
1	1437	7205
1	1425	7206
1	1425	7207
1	1437	7208
1	1469	7209
1	1500	7210
1	1527	7211
1	1542	7212
1	1552	7213
1	1562	7214
1	1575	7215
1	1589	7216
1	1604	7217
1	1613	7218
1	1607	7219
1	1594	7220
1	1579	7221
1	1567	7222
1	1556	7223
1	1553	7224
1	1543	7225
1	1540	7226
1	1535	7227
1	1541	7228
1	1540	7229
1	1542	7230
1	1541	7231
1	1529	7232
1	1524	7233
1	1528	7234
1	1542	7235
1	1555	7236
1	1559	7237
1	1555	7238
1	1546	7239
1	1542	7240
1	1546	7241
1	1557	7242
1	1577	7243
1	1577	7244
1	1567	7245
1	1553	7246
1	1542	7247
1	1536	7248
1	1529	7249
1	1529	7250
1	1539	7251
1	1552	7252
1	1556	7253
1	1571	7254
1	1580	7255
1	1579	7256
1	1564	7257
1	1553	7258
1	1551	7259
1	1550	7260
1	1549	7261
1	1543	7262
1	1531	7263
1	1511	7264
1	1501	7265
1	1503	7266
1	1504	7267
1	1517	7268
1	1542	7269
1	1564	7270
1	1582	7271
1	1598	7272
1	1608	7273
1	1611	7274
1	1609	7275
1	1607	7276
1	1607	7277
1	1607	7278
1	1597	7279
1	1593	7280
1	1589	7281
1	1579	7282
1	1560	7283
1	1548	7284
1	1538	7285
1	1533	7286
1	1541	7287
1	1555	7288
1	1582	7289
1	1607	7290
1	1625	7291
1	1632	7292
1	1629	7293
1	1615	7294
1	1607	7295
1	1606	7296
1	1607	7297
1	1607	7298
1	1610	7299
1	1611	7300
1	1609	7301
1	1600	7302
1	1584	7303
1	1578	7304
1	1581	7305
1	1594	7306
1	1607	7307
1	1611	7308
1	1607	7309
1	1598	7310
1	1593	7311
1	1589	7312
1	1585	7313
1	1589	7314
1	1583	7315
1	1581	7316
1	1584	7317
1	1589	7318
1	1587	7319
1	1566	7340
1	1552	7341
1	1539	7342
1	1535	7343
1	1530	7344
1	1533	7345
1	1542	7346
1	1555	7347
1	1571	7348
1	1591	7349
1	1607	7350
1	1616	7351
1	1620	7352
1	1623	7353
1	1616	7354
1	1610	7355
1	1609	7356
1	1607	7357
1	1601	7358
1	1598	7359
1	1584	7340
1	1580	7341
1	1569	7342
1	1560	7343
1	1554	7344
1	1548	7345
1	1544	7346
1	1545	7347
1	1547	7348
1	1555	7349
1	1555	7350
1	1555	7351
1	1569	7352
1	1577	7353
1	1574	7354
1	1577	7355
1	1580	7356
1	1580	7357
1	1580	7358
1	1576	7359
1	1584	7360
1	1575	7361
1	1566	7362
1	1560	7363
1	1563	7364
1	1571	7365
1	1580	7366
1	1586	7367
1	1600	7368
1	1615	7369
1	1634	7370
1	1647	7371
1	1660	7372
1	1674	7373
1	1690	7374
1	1696	7375
1	1698	7376
1	1697	7377
1	1697	7378
1	1699	7379
1	1697	7380
1	1687	7381
1	1674	7382
1	1655	7383
1	1628	7384
1	1604	7385
1	1580	7386
1	1557	7387
1	1551	7388
1	1556	7389
1	1562	7390
1	1566	7391
1	1577	7392
1	1602	7393
1	1631	7394
1	1656	7395
1	1670	7396
1	1679	7397
1	1675	7398
1	1657	7399
1	1634	7400
1	1607	7401
1	1580	7402
1	1555	7403
1	1553	7404
1	1551	7405
1	1561	7406
1	1589	7407
1	1625	7408
1	1652	7409
1	1667	7410
1	1674	7411
1	1681	7412
1	1684	7413
1	1670	7414
1	1663	7415
1	1660	7416
1	1648	7417
1	1634	7418
1	1620	7419
1	1607	7440
1	1602	7441
1	1593	7442
1	1589	7443
1	1580	7444
1	1573	7445
1	1567	7446
1	1555	7447
1	1553	7448
1	1555	7449
1	1557	7450
1	1554	7451
1	1549	7452
1	1546	7453
1	1546	7454
1	1553	7455
1	1560	7456
1	1580	7457
1	1593	7458
1	1596	7459
1	1590	7440
1	1580	7441
1	1578	7442
1	1581	7443
1	1589	7444
1	1598	7445
1	1608	7446
1	1628	7447
1	1647	7448
1	1674	7449
1	1688	7450
1	1687	7451
1	1667	7452
1	1639	7453
1	1618	7454
1	1600	7455
1	1592	7456
1	1589	7457
1	1590	7458
1	1580	7459
1	1569	7460
1	1562	7461
1	1557	7462
1	1556	7463
1	1558	7464
1	1555	7465
1	1552	7466
1	1549	7467
1	1553	7468
1	1561	7469
1	1569	7470
1	1562	7471
1	1556	7472
1	1557	7473
1	1562	7474
1	1576	7475
1	1592	7476
1	1607	7477
1	1624	7478
1	1647	7479
1	1657	7480
1	1667	7481
1	1686	7482
1	1697	7483
1	1697	7484
1	1692	7485
1	1682	7486
1	1670	7487
1	1673	7488
1	1682	7489
1	1700	7490
1	1729	7491
1	1764	7492
1	1803	7493
1	1849	7494
1	1874	7495
1	1895	7496
1	1911	7497
1	1926	7498
1	1946	7499
1	1963	7500
1	1962	7501
1	1948	7502
1	1944	7503
1	1937	7504
1	1945	7505
1	1957	7506
1	1974	7507
1	1995	7508
1	2022	7509
1	2049	7510
1	2068	7511
1	2081	7512
1	2087	7513
1	2084	7514
1	2079	7515
1	2065	7516
1	2041	7517
1	2021	7518
1	1991	7519
1	1965	7520
1	1935	7521
1	1895	7522
1	1851	7523
1	1803	7524
1	1741	7525
1	1688	7526
1	1638	7527
1	1572	7528
1	1536	7529
1	1490	7530
1	1451	7531
1	1417	7532
1	1383	7533
1	1368	7534
1	1357	7535
1	1354	7536
1	1368	7537
1	1384	7538
1	1417	7539
1	1607	7560
1	1608	7561
1	1602	7562
1	1592	7563
1	1576	7564
1	1566	7565
1	1562	7566
1	1571	7567
1	1584	7568
1	1607	7569
1	1630	7570
1	1644	7571
1	1659	7572
1	1665	7573
1	1660	7574
1	1646	7575
1	1644	7576
1	1654	7577
1	1660	7578
1	1659	7579
1	1445	7540
1	1477	7541
1	1501	7542
1	1526	7543
1	1548	7544
1	1565	7545
1	1580	7546
1	1587	7547
1	1592	7548
1	1585	7549
1	1574	7550
1	1564	7551
1	1555	7552
1	1549	7553
1	1554	7554
1	1558	7555
1	1568	7556
1	1576	7557
1	1585	7558
1	1594	7559
1	1670	7580
1	1686	7581
1	1693	7582
1	1689	7583
1	1686	7584
1	1681	7585
1	1674	7586
1	1667	7587
1	1659	7588
1	1647	7589
1	1634	7590
1	1629	7591
1	1631	7592
1	1634	7593
1	1636	7594
1	1647	7595
1	1660	7596
1	1668	7597
1	1665	7598
1	1670	7599
1	1664	7600
1	1656	7601
1	1641	7602
1	1629	7603
1	1616	7604
1	1605	7605
1	1598	7606
1	1604	7607
1	1618	7608
1	1629	7609
1	1647	7610
1	1668	7611
1	1687	7612
1	1705	7613
1	1714	7614
1	1711	7615
1	1712	7616
1	1712	7617
1	1708	7618
1	1710	7619
1	1710	7620
1	1710	7621
1	1713	7622
1	1726	7623
1	1733	7624
1	1742	7625
1	1747	7626
1	1751	7627
1	1747	7628
1	1743	7629
1	1737	7630
1	1729	7631
1	1736	7632
1	1731	7633
1	1715	7634
1	1702	7635
1	1690	7636
1	1682	7637
1	1686	7638
1	1697	7639
1	1718	7660
1	1738	7661
1	1752	7662
1	1762	7663
1	1764	7664
1	1765	7665
1	1773	7666
1	1778	7667
1	1780	7668
1	1775	7669
1	1777	7670
1	1780	7671
1	1782	7672
1	1785	7673
1	1789	7674
1	1782	7675
1	1764	7676
1	1738	7677
1	1719	7678
1	1711	7679
1	1708	7640
1	1712	7641
1	1712	7642
1	1705	7643
1	1692	7644
1	1686	7645
1	1685	7646
1	1682	7647
1	1679	7648
1	1683	7649
1	1674	7650
1	1663	7651
1	1657	7652
1	1649	7653
1	1641	7654
1	1639	7655
1	1643	7656
1	1650	7657
1	1667	7658
1	1697	7659
1	1706	7680
1	1705	7681
1	1705	7682
1	1708	7683
1	1711	7684
1	1733	7685
1	1764	7686
1	1788	7687
1	1809	7688
1	1831	7689
1	1840	7690
1	1845	7691
1	1859	7692
1	1870	7693
1	1883	7694
1	1890	7695
1	1895	7696
1	1895	7697
1	1894	7698
1	1890	7699
1	1896	7700
1	1909	7701
1	1935	7702
1	1956	7703
1	1979	7704
1	1989	7705
1	1993	7706
1	1995	7707
1	1987	7708
1	1968	7709
1	1948	7710
1	1919	7711
1	1885	7712
1	1865	7713
1	1850	7714
1	1843	7715
1	1841	7716
1	1845	7717
1	1857	7718
1	1875	7719
1	1881	7720
1	1886	7721
1	1884	7722
1	1884	7723
1	1884	7724
1	1881	7725
1	1879	7726
1	1878	7727
1	1883	7728
1	1882	7729
1	1877	7730
1	1869	7731
1	1862	7732
1	1856	7733
1	1849	7734
1	1845	7735
1	1843	7736
1	1849	7737
1	1855	7738
1	1867	7739
1	1872	7740
1	1881	7741
1	1881	7742
1	1877	7743
1	1869	7744
1	1870	7745
1	1872	7746
1	1875	7747
1	1882	7748
1	1894	7749
1	1894	7750
1	1888	7751
1	1886	7752
1	1888	7753
1	1888	7754
1	1880	7755
1	1867	7756
1	1851	7757
1	1834	7758
1	1803	7759
1	1796	7780
1	1796	7781
1	1791	7782
1	1782	7783
1	1770	7784
1	1764	7785
1	1751	7786
1	1734	7787
1	1713	7788
1	1690	7789
1	1670	7790
1	1652	7791
1	1636	7792
1	1624	7793
1	1620	7794
1	1607	7795
1	1598	7796
1	1589	7797
1	1580	7798
1	1567	7799
1	1781	7760
1	1754	7761
1	1726	7762
1	1701	7763
1	1685	7764
1	1663	7765
1	1643	7766
1	1625	7767
1	1610	7768
1	1607	7769
1	1610	7770
1	1625	7771
1	1644	7772
1	1670	7773
1	1684	7774
1	1697	7775
1	1712	7776
1	1737	7777
1	1763	7778
1	1787	7779
1	1555	7800
1	1547	7801
1	1541	7802
1	1535	7803
1	1518	7804
1	1501	7805
1	1492	7806
1	1499	7807
1	1509	7808
1	1530	7809
1	1553	7810
1	1575	7811
1	1600	7812
1	1622	7813
1	1629	7814
1	1626	7815
1	1610	7816
1	1589	7817
1	1572	7818
1	1545	7819
1	1529	7820
1	1529	7821
1	1542	7822
1	1565	7823
1	1596	7824
1	1613	7825
1	1621	7826
1	1631	7827
1	1634	7828
1	1638	7829
1	1636	7830
1	1635	7831
1	1632	7832
1	1625	7833
1	1618	7834
1	1605	7835
1	1586	7836
1	1573	7837
1	1571	7838
1	1573	7839
1	1577	7840
1	1582	7841
1	1569	7842
1	1563	7843
1	1557	7844
1	1543	7845
1	1530	7846
1	1521	7847
1	1517	7848
1	1510	7849
1	1518	7850
1	1529	7851
1	1541	7852
1	1554	7853
1	1566	7854
1	1566	7855
1	1571	7856
1	1584	7857
1	1610	7858
1	1633	7859
1	1647	7860
1	1651	7861
1	1648	7862
1	1645	7863
1	1638	7864
1	1636	7865
1	1641	7866
1	1647	7867
1	1656	7868
1	1665	7869
1	1674	7870
1	1681	7871
1	1676	7872
1	1660	7873
1	1647	7874
1	1634	7875
1	1626	7876
1	1620	7877
1	1616	7878
1	1613	7879
1	1607	7900
1	1615	7901
1	1620	7902
1	1625	7903
1	1631	7904
1	1635	7905
1	1649	7906
1	1675	7907
1	1700	7908
1	1708	7909
1	1716	7910
1	1730	7911
1	1746	7912
1	1773	7913
1	1801	7914
1	1817	7915
1	1819	7916
1	1817	7917
1	1788	7918
1	1744	7919
1	1612	7880
1	1616	7881
1	1620	7882
1	1623	7883
1	1630	7884
1	1634	7885
1	1639	7886
1	1643	7887
1	1646	7888
1	1647	7889
1	1647	7890
1	1647	7891
1	1643	7892
1	1637	7893
1	1628	7894
1	1619	7895
1	1607	7896
1	1592	7897
1	1584	7898
1	1596	7899
1	1698	7920
1	1652	7921
1	1607	7922
1	1567	7923
1	1529	7924
1	1501	7925
1	1481	7926
1	1476	7927
1	1477	7928
1	1485	7929
1	1488	7930
1	1490	7931
1	1503	7932
1	1521	7933
1	1543	7934
1	1576	7935
1	1608	7936
1	1634	7937
1	1656	7938
1	1661	7939
1	1662	7940
1	1660	7941
1	1658	7942
1	1652	7943
1	1647	7944
1	1648	7945
1	1652	7946
1	1660	7947
1	1664	7948
1	1674	7949
1	1682	7950
1	1686	7951
1	1685	7952
1	1682	7953
1	1668	7954
1	1660	7955
1	1660	7956
1	1658	7957
1	1646	7958
1	1628	7959
1	1600	7960
1	1579	7961
1	1557	7962
1	1547	7963
1	1539	7964
1	1541	7965
1	1550	7966
1	1559	7967
1	1575	7968
1	1585	7969
1	1603	7970
1	1618	7971
1	1636	7972
1	1661	7973
1	1681	7974
1	1681	7975
1	1683	7976
1	1685	7977
1	1680	7978
1	1672	7979
1	1667	7980
1	1664	7981
1	1660	7982
1	1655	7983
1	1643	7984
1	1634	7985
1	1634	7986
1	1629	7987
1	1625	7988
1	1632	7989
1	1636	7990
1	1651	7991
1	1662	7992
1	1677	7993
1	1696	7994
1	1712	7995
1	1728	7996
1	1733	7997
1	1727	7998
1	1712	7999
1	1698	8000
1	1686	8000
1	1678	8002
1	1674	8003
1	1677	8004
1	1672	8005
1	1669	8006
1	1670	8007
1	1672	8008
1	1677	8009
1	1685	8010
1	1686	8011
1	1685	8012
1	1688	8013
1	1686	8013
1	1688	8015
1	1687	8016
1	1683	8016
1	1681	8018
1	1683	8019
1	1675	8020
1	1670	8021
1	1664	8022
1	1660	8023
1	1657	8024
1	1652	8025
1	1644	8026
1	1626	8027
1	1623	8028
1	1625	8029
1	1622	8029
1	1611	8031
1	1610	8032
1	1622	8032
1	1636	8034
1	1660	8035
1	1688	8036
1	1710	8037
1	1726	8038
1	1725	8039
1	1711	8040
1	1695	8041
1	1679	8042
1	1670	8043
1	1665	8044
1	1674	8045
1	1686	8045
1	1692	8047
1	1700	8048
1	1710	8048
1	1714	8050
1	1716	8051
1	1719	8052
1	1733	8053
1	1747	8054
1	1765	8055
1	1790	8056
1	1809	8057
1	1799	8058
1	1767	8059
1	1701	8100
1	1687	8101
1	1665	8102
1	1649	8103
1	1628	8104
1	1610	8105
1	1600	8106
1	1597	8106
1	1597	8108
1	1605	8109
1	1606	8109
1	1604	8111
1	1598	8112
1	1595	8113
1	1594	8114
1	1598	8115
1	1602	8116
1	1607	8117
1	1622	8118
1	1637	8119
1	1610	8080
1	1590	8080
1	1571	8082
1	1555	8083
1	1548	8084
1	1553	8085
1	1563	8086
1	1580	8087
1	1589	8088
1	1593	8089
1	1597	8090
1	1604	8090
1	1608	8092
1	1625	8093
1	1650	8093
1	1674	8095
1	1688	8096
1	1695	8096
1	1701	8098
1	1706	8099
1	1741	8060
1	1724	8061
1	1708	8061
1	1691	8063
1	1686	8064
1	1684	8064
1	1699	8066
1	1724	8067
1	1748	8068
1	1764	8069
1	1769	8070
1	1762	8071
1	1744	8072
1	1724	8073
1	1697	8074
1	1672	8074
1	1652	8076
1	1645	8077
1	1634	8077
1	1633	8079
1	1654	8120
1	1660	8121
1	1664	8122
1	1679	8122
1	1697	8124
1	1698	8125
1	1689	8125
1	1686	8127
1	1698	8128
1	1706	8129
1	1726	8130
1	1733	8131
1	1730	8132
1	1720	8133
1	1710	8134
1	1700	8135
1	1690	8136
1	1682	8137
1	1670	8138
1	1658	8138
1	1651	8140
1	1652	8141
1	1663	8141
1	1691	8143
1	1712	8144
1	1726	8145
1	1730	8146
1	1737	8147
1	1733	8148
1	1715	8149
1	1703	8150
1	1693	8151
1	1679	8152
1	1665	8153
1	1663	8154
1	1670	8154
1	1685	8156
1	1712	8157
1	1747	8157
1	1789	8159
1	1830	8160
1	1856	8161
1	1873	8162
1	1889	8163
1	1872	8164
1	1859	8165
1	1845	8166
1	1833	8167
1	1832	8168
1	1848	8169
1	1868	8170
1	1896	8170
1	1931	8172
1	1972	8173
1	2013	8173
1	2063	8175
1	2126	8176
1	2184	8177
1	2234	8178
1	2252	8179
1	2258	8180
1	2253	8181
1	2236	8182
1	2204	8183
1	2178	8184
1	2140	8185
1	2104	8186
1	2066	8186
1	2027	8188
1	1985	8189
1	1935	8189
1	1887	8191
1	1845	8192
1	1803	8193
1	1764	8194
1	1734	8195
1	1703	8196
1	1671	8197
1	1644	8198
1	1625	8199
1	1603	8200
1	1584	8201
1	1564	8202
1	1541	8203
1	1524	8204
1	1510	8205
1	1498	8206
1	1494	8207
1	1502	8208
1	1503	8209
1	1514	8210
1	1527	8211
1	1538	8212
1	1552	8213
1	1581	8214
1	1607	8215
1	1634	8216
1	1659	8217
1	1677	8218
1	1686	8219
1	1687	8220
1	1677	8221
1	1662	8222
1	1646	8223
1	1632	8224
1	1632	8225
1	1635	8226
1	1643	8227
1	1653	8228
1	1665	8229
1	1683	8230
1	1692	8231
1	1697	8232
1	1700	8233
1	1712	8234
1	1723	8235
1	1734	8236
1	1740	8237
1	1731	8238
1	1700	8239
1	1738	8260
1	1726	8261
1	1716	8262
1	1709	8263
1	1700	8264
1	1699	8265
1	1710	8266
1	1723	8267
1	1744	8268
1	1758	8269
1	1767	8270
1	1770	8271
1	1772	8272
1	1773	8273
1	1786	8274
1	1796	8275
1	1816	8276
1	1821	8277
1	1812	8278
1	1787	8279
1	1671	8240
1	1642	8241
1	1615	8242
1	1594	8243
1	1581	8244
1	1581	8245
1	1589	8246
1	1610	8247
1	1637	8248
1	1665	8249
1	1697	8250
1	1725	8251
1	1752	8252
1	1782	8253
1	1793	8254
1	1796	8255
1	1791	8256
1	1783	8257
1	1765	8258
1	1752	8259
1	1754	8280
1	1718	8281
1	1684	8282
1	1661	8283
1	1647	8284
1	1641	8285
1	1635	8286
1	1634	8287
1	1641	8288
1	1662	8289
1	1685	8290
1	1703	8291
1	1723	8292
1	1734	8293
1	1740	8294
1	1741	8295
1	1736	8296
1	1729	8297
1	1733	8298
1	1738	8299
1	1754	8300
1	1761	8301
1	1749	8302
1	1724	8303
1	1697	8304
1	1665	8305
1	1638	8306
1	1625	8307
1	1623	8308
1	1634	8309
1	1658	8310
1	1683	8311
1	1705	8312
1	1724	8313
1	1731	8314
1	1740	8315
1	1752	8316
1	1755	8317
1	1751	8318
1	1746	8319
1	1911	8340
1	1900	8341
1	1885	8342
1	1868	8343
1	1842	8344
1	1819	8345
1	1792	8346
1	1767	8347
1	1743	8348
1	1726	8349
1	1707	8350
1	1693	8351
1	1695	8352
1	1712	8353
1	1725	8354
1	1737	8355
1	1749	8356
1	1769	8357
1	1792	8358
1	1816	8359
1	1739	8320
1	1738	8321
1	1738	8322
1	1737	8323
1	1737	8324
1	1738	8325
1	1742	8326
1	1749	8327
1	1763	8328
1	1777	8329
1	1787	8330
1	1788	8331
1	1792	8332
1	1811	8333
1	1826	8334
1	1841	8335
1	1858	8336
1	1880	8337
1	1899	8338
1	1911	8339
1	1959	8380
1	1962	8381
1	1962	8382
1	1953	8383
1	1940	8384
1	1920	8385
1	1895	8386
1	1883	8387
1	1872	8388
1	1869	8389
1	1877	8390
1	1887	8391
1	1895	8392
1	1895	8393
1	1893	8394
1	1887	8395
1	1883	8396
1	1884	8397
1	1882	8398
1	1871	8399
1	1824	8360
1	1832	8361
1	1831	8362
1	1825	8363
1	1829	8364
1	1836	8365
1	1845	8366
1	1858	8367
1	1872	8368
1	1890	8369
1	1908	8370
1	1924	8371
1	1939	8372
1	1943	8373
1	1938	8374
1	1935	8375
1	1935	8376
1	1937	8377
1	1939	8378
1	1949	8379
1	1860	8400
1	1860	8401
1	1869	8402
1	1870	8403
1	1872	8404
1	1878	8405
1	1875	8406
1	1868	8407
1	1852	8408
1	1834	8409
1	1821	8410
1	1832	8411
1	1847	8412
1	1867	8413
1	1888	8414
1	1904	8415
1	1911	8416
1	1914	8417
1	1910	8418
1	1899	8419
1	1893	8420
1	1890	8421
1	1895	8422
1	1907	8423
1	1918	8424
1	1916	8425
1	1904	8426
1	1895	8427
1	1881	8428
1	1861	8429
1	1845	8430
1	1835	8431
1	1827	8432
1	1817	8433
1	1800	8434
1	1787	8435
1	1769	8436
1	1751	8437
1	1737	8438
1	1716	8439
1	1705	8440
1	1699	8441
1	1693	8442
1	1692	8443
1	1689	8444
1	1695	8445
1	1697	8446
1	1699	8447
1	1697	8448
1	1688	8449
1	1688	8450
1	1694	8451
1	1686	8452
1	1675	8453
1	1664	8454
1	1643	8455
1	1611	8456
1	1580	8457
1	1550	8458
1	1530	8459
1	1575	8480
1	1555	8481
1	1544	8482
1	1534	8483
1	1531	8484
1	1523	8485
1	1515	8486
1	1527	8487
1	1537	8488
1	1550	8489
1	1561	8490
1	1577	8491
1	1592	8492
1	1615	8493
1	1638	8494
1	1656	8495
1	1669	8496
1	1674	8497
1	1665	8498
1	1652	8499
1	1634	8500
1	1621	8501
1	1607	8502
1	1592	8503
1	1574	8504
1	1554	8505
1	1535	8506
1	1524	8507
1	1521	8508
1	1524	8509
1	1535	8510
1	1555	8511
1	1584	8512
1	1608	8513
1	1633	8514
1	1645	8515
1	1652	8516
1	1652	8517
1	1646	8518
1	1631	8519
1	1526	8460
1	1521	8461
1	1517	8462
1	1507	8463
1	1499	8464
1	1499	8465
1	1510	8466
1	1524	8467
1	1530	8468
1	1542	8469
1	1543	8470
1	1537	8471
1	1529	8472
1	1528	8473
1	1530	8474
1	1544	8475
1	1568	8476
1	1592	8477
1	1597	8478
1	1589	8479
1	1556	8560
1	1544	8561
1	1533	8562
1	1531	8563
1	1531	8564
1	1531	8565
1	1534	8566
1	1539	8567
1	1540	8568
1	1540	8569
1	1548	8570
1	1554	8571
1	1555	8572
1	1557	8573
1	1560	8574
1	1557	8575
1	1563	8576
1	1577	8577
1	1586	8578
1	1593	8579
1	1550	8540
1	1536	8541
1	1527	8542
1	1521	8543
1	1518	8544
1	1521	8545
1	1516	8546
1	1511	8547
1	1521	8548
1	1538	8549
1	1555	8550
1	1572	8551
1	1594	8552
1	1616	8553
1	1621	8554
1	1620	8555
1	1608	8556
1	1596	8557
1	1581	8558
1	1568	8559
1	1603	8520
1	1573	8521
1	1545	8522
1	1521	8523
1	1508	8524
1	1515	8525
1	1529	8526
1	1544	8527
1	1564	8528
1	1584	8529
1	1599	8530
1	1607	8531
1	1620	8532
1	1633	8533
1	1638	8534
1	1639	8535
1	1636	8536
1	1625	8537
1	1603	8538
1	1571	8539
1	1602	8580
1	1613	8581
1	1621	8582
1	1620	8583
1	1605	8584
1	1577	8585
1	1554	8586
1	1534	8587
1	1528	8588
1	1539	8589
1	1558	8590
1	1589	8591
1	1616	8592
1	1642	8593
1	1660	8594
1	1672	8595
1	1683	8596
1	1685	8597
1	1681	8598
1	1664	8599
1	1651	8600
1	1638	8601
1	1629	8602
1	1625	8603
1	1626	8604
1	1621	8605
1	1620	8606
1	1616	8607
1	1615	8608
1	1613	8609
1	1609	8610
1	1607	8611
1	1607	8612
1	1607	8613
1	1607	8614
1	1607	8615
1	1608	8616
1	1607	8617
1	1599	8618
1	1593	8619
1	1589	8620
1	1589	8621
1	1582	8622
1	1575	8623
1	1566	8624
1	1564	8625
1	1565	8626
1	1565	8627
1	1568	8628
1	1575	8629
1	1581	8630
1	1594	8631
1	1605	8632
1	1607	8633
1	1611	8634
1	1622	8635
1	1626	8636
1	1625	8637
1	1621	8638
1	1607	8639
1	1590	8640
1	1569	8641
1	1553	8642
1	1541	8643
1	1527	8644
1	1517	8645
1	1508	8646
1	1508	8647
1	1513	8648
1	1531	8649
1	1553	8650
1	1574	8651
1	1594	8652
1	1607	8653
1	1611	8654
1	1620	8655
1	1630	8656
1	1644	8657
1	1660	8658
1	1660	8659
1	1656	8660
1	1638	8661
1	1616	8662
1	1596	8663
1	1581	8664
1	1572	8665
1	1575	8666
1	1586	8667
1	1600	8668
1	1617	8669
1	1634	8670
1	1647	8671
1	1661	8672
1	1677	8673
1	1680	8674
1	1681	8675
1	1683	8676
1	1686	8677
1	1682	8678
1	1670	8679
1	1647	8680
1	1622	8681
1	1585	8682
1	1555	8683
1	1531	8684
1	1525	8685
1	1517	8686
1	1530	8687
1	1555	8688
1	1580	8689
1	1593	8690
1	1604	8691
1	1616	8692
1	1634	8693
1	1660	8694
1	1674	8695
1	1685	8696
1	1687	8697
1	1687	8698
1	1691	8699
1	1700	8700
1	1704	8701
1	1703	8702
1	1695	8703
1	1682	8704
1	1671	8705
1	1660	8706
1	1647	8707
1	1634	8708
1	1616	8709
1	1598	8710
1	1593	8711
1	1596	8712
1	1605	8713
1	1607	8714
1	1611	8715
1	1615	8716
1	1621	8717
1	1627	8718
1	1620	8719
1	1618	8720
1	1621	8721
1	1625	8722
1	1631	8723
1	1634	8724
1	1635	8725
1	1638	8726
1	1634	8727
1	1629	8728
1	1616	8729
1	1605	8730
1	1588	8731
1	1581	8732
1	1581	8733
1	1580	8734
1	1585	8735
1	1590	8736
1	1593	8737
1	1597	8738
1	1596	8739
1	1592	8740
1	1581	8741
1	1564	8742
1	1561	8743
1	1557	8744
1	1555	8745
1	1542	8746
1	1535	8747
1	1537	8748
1	1544	8749
1	1564	8750
1	1586	8751
1	1607	8752
1	1632	8753
1	1643	8754
1	1639	8755
1	1637	8756
1	1636	8757
1	1643	8758
1	1652	8759
1	1660	8760
1	1672	8761
1	1683	8762
1	1680	8763
1	1658	8764
1	1629	8765
1	1593	8766
1	1559	8767
1	1533	8768
1	1508	8769
1	1485	8770
1	1469	8771
1	1466	8772
1	1471	8773
1	1482	8774
1	1508	8775
1	1530	8776
1	1554	8777
1	1574	8778
1	1590	8779
1	1615	8780
1	1646	8781
1	1665	8782
1	1686	8783
1	1697	8784
1	1689	8785
1	1667	8786
1	1643	8787
1	1607	8788
1	1571	8789
1	1537	8790
1	1508	8791
1	1495	8792
1	1499	8793
1	1514	8794
1	1539	8795
1	1557	8796
1	1580	8797
1	1616	8798
1	1665	8799
1	1712	8800
1	1754	8801
1	1787	8802
1	1809	8803
1	1817	8804
1	1824	8805
1	1822	8806
1	1818	8807
1	1817	8808
1	1812	8809
1	1817	8810
1	1834	8811
1	1859	8812
1	1880	8813
1	1904	8814
1	1916	8815
1	1931	8816
1	1948	8817
1	1955	8818
1	1965	8819
1	1974	8820
1	1987	8821
1	2006	8822
1	2026	8823
1	2032	8824
1	2040	8825
1	2052	8826
1	2052	8827
1	2050	8828
1	2052	8829
1	2052	8830
1	2038	8831
1	2025	8832
1	1996	8833
1	1964	8834
1	1927	8835
1	1881	8836
1	1831	8837
1	1766	8838
1	1693	8839
1	1632	8840
1	1574	8841
1	1525	8842
1	1484	8843
1	1461	8844
1	1456	8845
1	1463	8846
1	1478	8847
1	1494	8848
1	1504	8849
1	1515	8850
1	1521	8851
1	1511	8852
1	1492	8853
1	1469	8854
1	1449	8855
1	1428	8856
1	1415	8857
1	1410	8858
1	1418	8859
1	1424	8860
1	1428	8861
1	1437	8862
1	1449	8863
1	1461	8864
1	1477	8865
1	1494	8866
1	1516	8867
1	1537	8868
1	1555	8869
1	1580	8870
1	1597	8871
1	1611	8872
1	1619	8873
1	1628	8874
1	1625	8875
1	1617	8876
1	1616	8877
1	1617	8878
1	1616	8879
1	1664	8900
1	1672	8901
1	1670	8902
1	1663	8903
1	1663	8904
1	1660	8905
1	1657	8906
1	1652	8907
1	1654	8908
1	1657	8909
1	1660	8910
1	1662	8911
1	1664	8912
1	1665	8913
1	1670	8914
1	1684	8915
1	1686	8916
1	1677	8917
1	1654	8918
1	1634	8919
1	1608	8880
1	1606	8881
1	1597	8882
1	1595	8883
1	1593	8884
1	1595	8885
1	1600	8886
1	1607	8887
1	1613	8888
1	1625	8889
1	1632	8890
1	1633	8891
1	1631	8892
1	1631	8893
1	1635	8894
1	1647	8895
1	1656	8896
1	1659	8897
1	1658	8898
1	1659	8899
1	1603	8940
1	1607	8941
1	1605	8942
1	1598	8943
1	1587	8944
1	1580	8945
1	1569	8946
1	1557	8947
1	1555	8948
1	1573	8949
1	1592	8950
1	1611	8951
1	1643	8952
1	1681	8953
1	1716	8954
1	1744	8955
1	1764	8956
1	1773	8957
1	1768	8958
1	1751	8959
1	1741	8960
1	1737	8961
1	1721	8962
1	1692	8963
1	1660	8964
1	1632	8965
1	1607	8966
1	1590	8967
1	1594	8968
1	1611	8969
1	1638	8970
1	1660	8971
1	1679	8972
1	1700	8973
1	1711	8974
1	1724	8975
1	1736	8976
1	1751	8977
1	1760	8978
1	1776	8979
1	1613	8920
1	1607	8921
1	1593	8922
1	1581	8923
1	1581	8924
1	1585	8925
1	1602	8926
1	1617	8927
1	1632	8928
1	1646	8929
1	1656	8930
1	1660	8931
1	1652	8932
1	1634	8933
1	1629	8934
1	1607	8935
1	1606	8936
1	1607	8937
1	1597	8938
1	1596	8939
1	1767	8980
1	1747	8981
1	1721	8982
1	1697	8983
1	1673	8984
1	1638	8985
1	1616	8986
1	1598	8987
1	1592	8988
1	1593	8989
1	1613	8990
1	1641	8991
1	1664	8992
1	1688	8993
1	1715	8994
1	1747	8995
1	1764	8996
1	1783	8997
1	1800	8998
1	1815	8999
1	1812	9000
1	1799	9001
1	1791	9002
1	1783	9003
1	1778	9004
1	1773	9005
1	1770	9006
1	1773	9007
1	1781	9008
1	1791	9009
1	1801	9010
1	1814	9011
1	1819	9012
1	1817	9013
1	1809	9014
1	1796	9015
1	1791	9016
1	1796	9017
1	1803	9018
1	1814	9019
1	1829	9020
1	1847	9021
1	1861	9022
1	1875	9023
1	1895	9024
1	1904	9025
1	1922	9026
1	1940	9027
1	1950	9028
1	1948	9029
1	1937	9030
1	1922	9031
1	1904	9032
1	1877	9033
1	1845	9034
1	1817	9035
1	1791	9036
1	1779	9037
1	1764	9038
1	1755	9039
1	1746	9040
1	1736	9041
1	1723	9042
1	1723	9043
1	1724	9044
1	1738	9045
1	1759	9046
1	1776	9047
1	1791	9048
1	1790	9049
1	1782	9050
1	1770	9051
1	1763	9052
1	1755	9053
1	1764	9054
1	1764	9055
1	1773	9056
1	1780	9057
1	1787	9058
1	1791	9059
1	1791	9060
1	1790	9061
1	1781	9062
1	1765	9063
1	1744	9064
1	1729	9065
1	1715	9066
1	1707	9067
1	1701	9068
1	1706	9069
1	1706	9070
1	1711	9071
1	1716	9072
1	1721	9073
1	1726	9074
1	1733	9075
1	1737	9076
1	1738	9077
1	1738	9078
1	1734	9079
1	1737	9080
1	1737	9081
1	1731	9082
1	1726	9083
1	1718	9084
1	1704	9085
1	1686	9086
1	1679	9087
1	1662	9088
1	1652	9089
1	1652	9090
1	1657	9091
1	1670	9092
1	1682	9093
1	1682	9094
1	1675	9095
1	1664	9096
1	1642	9097
1	1611	9098
1	1592	9099
1	1573	9100
1	1558	9101
1	1548	9102
1	1533	9103
1	1521	9104
1	1510	9105
1	1505	9106
1	1510	9107
1	1521	9108
1	1529	9109
1	1549	9110
1	1567	9111
1	1581	9112
1	1590	9113
1	1607	9114
1	1615	9115
1	1620	9116
1	1623	9117
1	1625	9118
1	1616	9119
1	1602	9120
1	1586	9121
1	1571	9122
1	1557	9123
1	1544	9124
1	1531	9125
1	1521	9126
1	1503	9127
1	1492	9128
1	1493	9129
1	1499	9130
1	1499	9131
1	1503	9132
1	1501	9133
1	1494	9134
1	1485	9135
1	1479	9136
1	1480	9137
1	1487	9138
1	1490	9139
1	1498	9140
1	1503	9141
1	1502	9142
1	1494	9143
1	1489	9144
1	1490	9145
1	1493	9146
1	1505	9147
1	1512	9148
1	1513	9149
1	1520	9150
1	1534	9151
1	1554	9152
1	1569	9153
1	1574	9154
1	1572	9155
1	1567	9156
1	1555	9157
1	1543	9158
1	1541	9159
1	1534	9160
1	1529	9161
1	1519	9162
1	1504	9163
1	1502	9164
1	1507	9165
1	1518	9166
1	1531	9167
1	1547	9168
1	1554	9169
1	1561	9170
1	1564	9171
1	1569	9172
1	1571	9173
1	1564	9174
1	1549	9175
1	1533	9176
1	1529	9177
1	1529	9178
1	1531	9179
1	1530	9180
1	1530	9181
1	1530	9182
1	1528	9183
1	1512	9184
1	1495	9185
1	1476	9186
1	1462	9187
1	1453	9188
1	1451	9189
1	1450	9190
1	1451	9191
1	1472	9192
1	1503	9193
1	1542	9194
1	1582	9195
1	1612	9196
1	1634	9197
1	1647	9198
1	1642	9199
1	1632	9200
1	1619	9201
1	1603	9202
1	1577	9203
1	1544	9204
1	1521	9205
1	1499	9206
1	1487	9207
1	1490	9208
1	1503	9209
1	1528	9210
1	1555	9211
1	1581	9212
1	1597	9213
1	1602	9214
1	1608	9215
1	1618	9216
1	1634	9217
1	1648	9218
1	1655	9219
1	1584	9240
1	1571	9241
1	1560	9242
1	1561	9243
1	1555	9244
1	1542	9245
1	1526	9246
1	1514	9247
1	1516	9248
1	1533	9249
1	1556	9250
1	1582	9251
1	1607	9252
1	1622	9253
1	1634	9254
1	1636	9255
1	1633	9256
1	1618	9257
1	1606	9258
1	1592	9259
1	1652	9220
1	1655	9221
1	1656	9222
1	1654	9223
1	1645	9224
1	1629	9225
1	1611	9226
1	1597	9227
1	1593	9228
1	1592	9229
1	1594	9230
1	1590	9231
1	1589	9232
1	1587	9233
1	1579	9234
1	1574	9235
1	1571	9236
1	1575	9237
1	1593	9238
1	1595	9239
1	1585	9260
1	1581	9261
1	1577	9262
1	1568	9263
1	1561	9264
1	1554	9265
1	1544	9266
1	1538	9267
1	1537	9268
1	1543	9269
1	1556	9270
1	1574	9271
1	1590	9272
1	1607	9273
1	1620	9274
1	1626	9275
1	1628	9276
1	1623	9277
1	1616	9278
1	1607	9279
1	1594	9280
1	1584	9281
1	1581	9282
1	1581	9283
1	1584	9284
1	1592	9285
1	1594	9286
1	1595	9287
1	1600	9288
1	1602	9289
1	1607	9290
1	1610	9291
1	1611	9292
1	1616	9293
1	1626	9294
1	1622	9295
1	1620	9296
1	1623	9297
1	1626	9298
1	1626	9299
1	1620	9300
1	1611	9301
1	1610	9302
1	1620	9303
1	1629	9304
1	1634	9305
1	1646	9306
1	1657	9307
1	1663	9308
1	1664	9309
1	1658	9310
1	1644	9311
1	1625	9312
1	1607	9313
1	1602	9314
1	1607	9315
1	1621	9316
1	1640	9317
1	1658	9318
1	1668	9319
1	1674	9320
1	1660	9321
1	1644	9322
1	1623	9323
1	1611	9324
1	1598	9325
1	1589	9326
1	1584	9327
1	1584	9328
1	1581	9329
1	1589	9330
1	1604	9331
1	1617	9332
1	1626	9333
1	1637	9334
1	1647	9335
1	1652	9336
1	1656	9337
1	1657	9338
1	1651	9339
1	1566	9360
1	1555	9361
1	1535	9362
1	1521	9363
1	1513	9364
1	1508	9365
1	1514	9366
1	1525	9367
1	1547	9368
1	1572	9369
1	1590	9370
1	1596	9371
1	1593	9372
1	1593	9373
1	1598	9374
1	1607	9375
1	1619	9376
1	1629	9377
1	1634	9378
1	1629	9379
1	1645	9340
1	1634	9341
1	1623	9342
1	1616	9343
1	1602	9344
1	1586	9345
1	1575	9346
1	1562	9347
1	1555	9348
1	1553	9349
1	1554	9350
1	1555	9351
1	1554	9352
1	1551	9353
1	1555	9354
1	1563	9355
1	1573	9356
1	1575	9357
1	1572	9358
1	1569	9359
1	1624	9380
1	1616	9381
1	1611	9382
1	1617	9383
1	1623	9384
1	1623	9385
1	1617	9386
1	1613	9387
1	1619	9388
1	1625	9389
1	1634	9390
1	1646	9391
1	1648	9392
1	1652	9393
1	1651	9394
1	1647	9395
1	1637	9396
1	1622	9397
1	1608	9398
1	1598	9399
1	1584	9400
1	1571	9401
1	1553	9402
1	1535	9403
1	1523	9404
1	1519	9405
1	1523	9406
1	1526	9407
1	1530	9408
1	1544	9409
1	1570	9410
1	1595	9411
1	1614	9412
1	1632	9413
1	1642	9414
1	1655	9415
1	1664	9416
1	1674	9417
1	1675	9418
1	1671	9419
1	1665	9420
1	1655	9421
1	1634	9422
1	1608	9423
1	1580	9424
1	1555	9425
1	1538	9426
1	1521	9427
1	1503	9428
1	1495	9429
1	1487	9430
1	1473	9431
1	1474	9432
1	1465	9433
1	1462	9434
1	1463	9435
1	1467	9436
1	1476	9437
1	1497	9438
1	1521	9439
1	1555	9440
1	1598	9441
1	1642	9442
1	1688	9443
1	1729	9444
1	1769	9445
1	1816	9446
1	1855	9447
1	1874	9448
1	1890	9449
1	1895	9450
1	1890	9451
1	1878	9452
1	1857	9453
1	1836	9454
1	1818	9455
1	1809	9456
1	1795	9457
1	1785	9458
1	1783	9459
1	1790	9460
1	1809	9461
1	1837	9462
1	1869	9463
1	1908	9464
1	1947	9465
1	1986	9466
1	2026	9467
1	2066	9468
1	2091	9469
1	2107	9470
1	2117	9471
1	2112	9472
1	2104	9473
1	2093	9474
1	2079	9475
1	2058	9476
1	2027	9477
1	1998	9478
1	1961	9479
1	1916	9480
1	1860	9481
1	1809	9482
1	1760	9483
1	1711	9484
1	1661	9485
1	1620	9486
1	1582	9487
1	1557	9488
1	1542	9489
1	1518	9490
1	1503	9491
1	1492	9492
1	1490	9493
1	1498	9494
1	1505	9495
1	1509	9496
1	1505	9497
1	1492	9498
1	1473	9499
1	1454	9500
1	1448	9501
1	1450	9502
1	1461	9503
1	1469	9504
1	1482	9505
1	1494	9506
1	1503	9507
1	1503	9508
1	1499	9509
1	1502	9510
1	1513	9511
1	1528	9512
1	1542	9513
1	1555	9514
1	1569	9515
1	1584	9516
1	1598	9517
1	1607	9518
1	1620	9519
1	1569	9540
1	1548	9541
1	1526	9542
1	1510	9543
1	1494	9544
1	1490	9545
1	1498	9546
1	1518	9547
1	1548	9548
1	1580	9549
1	1607	9550
1	1639	9551
1	1674	9552
1	1705	9553
1	1723	9554
1	1730	9555
1	1729	9556
1	1726	9557
1	1721	9558
1	1708	9559
1	1627	9520
1	1629	9521
1	1628	9522
1	1626	9523
1	1624	9524
1	1625	9525
1	1630	9526
1	1629	9527
1	1628	9528
1	1620	9529
1	1608	9530
1	1607	9531
1	1610	9532
1	1616	9533
1	1613	9534
1	1616	9535
1	1620	9536
1	1607	9537
1	1597	9538
1	1582	9539
1	1634	9580
1	1626	9581
1	1616	9582
1	1609	9583
1	1607	9584
1	1596	9585
1	1589	9586
1	1584	9587
1	1580	9588
1	1561	9589
1	1546	9590
1	1535	9591
1	1533	9592
1	1546	9593
1	1563	9594
1	1589	9595
1	1625	9596
1	1656	9597
1	1673	9598
1	1684	9599
1	1688	9560
1	1664	9561
1	1647	9562
1	1638	9563
1	1644	9564
1	1657	9565
1	1681	9566
1	1710	9567
1	1737	9568
1	1754	9569
1	1765	9570
1	1776	9571
1	1780	9572
1	1779	9573
1	1762	9574
1	1737	9575
1	1705	9576
1	1679	9577
1	1660	9578
1	1644	9579
1	1683	9600
1	1674	9601
1	1672	9602
1	1661	9603
1	1649	9604
1	1643	9605
1	1636	9606
1	1638	9607
1	1650	9608
1	1661	9609
1	1670	9610
1	1685	9611
1	1699	9612
1	1721	9613
1	1742	9614
1	1757	9615
1	1755	9616
1	1746	9617
1	1733	9618
1	1717	9619
1	1711	9620
1	1707	9621
1	1688	9622
1	1673	9623
1	1658	9624
1	1646	9625
1	1644	9626
1	1636	9627
1	1634	9628
1	1628	9629
1	1634	9630
1	1652	9631
1	1670	9632
1	1690	9633
1	1712	9634
1	1726	9635
1	1728	9636
1	1721	9637
1	1719	9638
1	1721	9639
1	1737	9640
1	1762	9641
1	1800	9642
1	1843	9643
1	1864	9644
1	1863	9645
1	1845	9646
1	1818	9647
1	1781	9648
1	1744	9649
1	1723	9650
1	1709	9651
1	1705	9652
1	1712	9653
1	1730	9654
1	1751	9655
1	1776	9656
1	1800	9657
1	1826	9658
1	1849	9659
1	1873	9660
1	1895	9661
1	1907	9662
1	1917	9663
1	1920	9664
1	1921	9665
1	1921	9666
1	1900	9667
1	1881	9668
1	1862	9669
1	1842	9670
1	1826	9671
1	1817	9672
1	1801	9673
1	1782	9674
1	1764	9675
1	1750	9676
1	1734	9677
1	1718	9678
1	1701	9679
1	1699	9680
1	1706	9681
1	1719	9682
1	1740	9683
1	1773	9684
1	1809	9685
1	1842	9686
1	1867	9687
1	1887	9688
1	1908	9689
1	1922	9690
1	1937	9691
1	1952	9692
1	1960	9693
1	1952	9694
1	1932	9695
1	1900	9696
1	1858	9697
1	1821	9698
1	1796	9699
1	1790	9700
1	1787	9701
1	1787	9702
1	1787	9703
1	1791	9704
1	1808	9705
1	1817	9706
1	1822	9707
1	1821	9708
1	1803	9709
1	1791	9710
1	1778	9711
1	1773	9712
1	1769	9713
1	1765	9714
1	1753	9715
1	1739	9716
1	1726	9717
1	1703	9718
1	1669	9719
1	1647	9720
1	1635	9721
1	1634	9722
1	1629	9723
1	1624	9724
1	1633	9725
1	1654	9726
1	1677	9727
1	1704	9728
1	1734	9729
1	1757	9730
1	1769	9731
1	1791	9732
1	1791	9733
1	1809	9734
1	1796	9735
1	1782	9736
1	1754	9737
1	1719	9738
1	1687	9739
1	1656	9740
1	1616	9741
1	1581	9742
1	1548	9743
1	1512	9744
1	1482	9745
1	1462	9746
1	1449	9747
1	1448	9748
1	1450	9749
1	1458	9750
1	1472	9751
1	1486	9752
1	1507	9753
1	1534	9754
1	1566	9755
1	1591	9756
1	1602	9757
1	1614	9758
1	1631	9759
1	1641	9760
1	1647	9761
1	1641	9762
1	1626	9763
1	1607	9764
1	1593	9765
1	1580	9766
1	1567	9767
1	1563	9768
1	1563	9769
1	1571	9770
1	1584	9771
1	1600	9772
1	1607	9773
1	1613	9774
1	1608	9775
1	1593	9776
1	1562	9777
1	1537	9778
1	1512	9779
1	1498	9780
1	1488	9781
1	1487	9782
1	1492	9783
1	1490	9784
1	1499	9785
1	1515	9786
1	1531	9787
1	1544	9788
1	1548	9789
1	1547	9790
1	1537	9791
1	1526	9792
1	1510	9793
1	1508	9794
1	1517	9795
1	1526	9796
1	1535	9797
1	1556	9798
1	1580	9799
1	1586	9800
1	1585	9801
1	1583	9802
1	1583	9803
1	1592	9804
1	1590	9805
1	1583	9806
1	1561	9807
1	1538	9808
1	1521	9809
1	1513	9810
1	1515	9811
1	1529	9812
1	1553	9813
1	1567	9814
1	1583	9815
1	1593	9816
1	1595	9817
1	1581	9818
1	1555	9819
1	1634	9840
1	1625	9841
1	1617	9842
1	1609	9843
1	1594	9844
1	1581	9845
1	1577	9846
1	1573	9847
1	1577	9848
1	1590	9849
1	1598	9850
1	1602	9851
1	1604	9852
1	1603	9853
1	1607	9854
1	1613	9855
1	1620	9856
1	1628	9857
1	1636	9858
1	1636	9859
1	1517	9840
1	1488	9841
1	1477	9842
1	1485	9843
1	1492	9844
1	1503	9845
1	1521	9846
1	1539	9847
1	1566	9848
1	1593	9849
1	1616	9850
1	1632	9851
1	1638	9852
1	1641	9853
1	1647	9854
1	1652	9855
1	1657	9856
1	1656	9857
1	1655	9858
1	1644	9859
1	1620	9860
1	1584	9861
1	1541	9862
1	1498	9863
1	1476	9864
1	1463	9865
1	1468	9866
1	1478	9867
1	1499	9868
1	1527	9869
1	1553	9870
1	1568	9871
1	1576	9872
1	1580	9873
1	1580	9874
1	1585	9875
1	1594	9876
1	1598	9877
1	1593	9878
1	1587	9879
1	1577	9880
1	1566	9881
1	1553	9882
1	1544	9883
1	1548	9884
1	1561	9885
1	1585	9886
1	1604	9887
1	1616	9888
1	1624	9889
1	1634	9890
1	1634	9891
1	1634	9892
1	1626	9893
1	1621	9894
1	1611	9895
1	1603	9896
1	1595	9897
1	1595	9898
1	1597	9899
1	1602	9900
1	1600	9901
1	1594	9902
1	1589	9903
1	1575	9904
1	1569	9905
1	1569	9906
1	1573	9907
1	1581	9908
1	1591	9909
1	1602	9910
1	1612	9911
1	1619	9912
1	1625	9913
1	1625	9914
1	1620	9915
1	1612	9916
1	1603	9917
1	1589	9918
1	1569	9919
1	1555	9920
1	1552	9921
1	1545	9922
1	1538	9923
1	1542	9924
1	1549	9925
1	1564	9926
1	1580	9927
1	1595	9928
1	1587	9929
1	1591	9930
1	1603	9931
1	1622	9932
1	1647	9933
1	1674	9934
1	1692	9935
1	1705	9936
1	1715	9937
1	1731	9938
1	1744	9939
1	1751	9940
1	1749	9941
1	1739	9942
1	1740	9943
1	1738	9944
1	1737	9945
1	1731	9946
1	1721	9947
1	1716	9948
1	1708	9949
1	1701	9950
1	1701	9951
1	1701	9952
1	1692	9953
1	1682	9954
1	1656	9955
1	1634	9956
1	1624	9957
1	1608	9958
1	1593	9959
1	1585	9960
1	1574	9961
1	1555	9962
1	1543	9963
1	1529	9964
1	1529	9965
1	1535	9966
1	1538	9967
1	1538	9968
1	1548	9969
1	1566	9970
1	1593	9971
1	1618	9972
1	1640	9973
1	1657	9974
1	1666	9975
1	1672	9976
1	1665	9977
1	1647	9978
1	1616	9979
1	1585	9980
1	1563	9981
1	1553	9982
1	1548	9983
1	1555	9984
1	1550	9985
1	1556	9986
1	1566	9987
1	1584	9988
1	1607	9989
1	1624	9990
1	1634	9991
1	1644	9992
1	1643	9993
1	1634	9994
1	1625	9995
1	1610	9996
1	1595	9997
1	1580	9998
1	1562	9999
1	1536	10000
1	1512	10001
1	1495	10002
1	1494	10003
1	1503	10004
1	1512	10005
1	1531	10006
1	1556	10007
1	1584	10008
1	1607	10009
1	1634	10010
1	1661	10011
1	1688	10012
1	1715	10013
1	1742	10014
1	1751	10015
1	1751	10016
1	1751	10017
1	1751	10018
1	1742	10019
1	1730	10020
1	1709	10021
1	1682	10022
1	1654	10023
1	1627	10024
1	1607	10025
1	1599	10026
1	1593	10027
1	1593	10028
1	1595	10029
1	1625	10030
1	1670	10031
1	1720	10032
1	1760	10033
1	1808	10034
1	1829	10035
1	1837	10036
1	1831	10037
1	1817	10038
1	1782	10039
1	1746	10040
1	1712	10041
1	1686	10042
1	1663	10043
1	1652	10044
1	1643	10045
1	1634	10046
1	1630	10047
1	1619	10048
1	1606	10049
1	1597	10050
1	1595	10051
1	1602	10052
1	1615	10053
1	1626	10054
1	1634	10055
1	1638	10056
1	1634	10057
1	1628	10058
1	1626	10059
1	1618	10060
1	1611	10061
1	1607	10062
1	1599	10063
1	1593	10064
1	1590	10065
1	1598	10066
1	1609	10067
1	1620	10068
1	1624	10069
1	1629	10070
1	1626	10071
1	1629	10072
1	1634	10073
1	1647	10074
1	1661	10075
1	1673	10076
1	1686	10077
1	1693	10078
1	1699	10079
1	1697	10080
1	1687	10081
1	1686	10082
1	1687	10083
1	1686	10084
1	1686	10085
1	1675	10086
1	1660	10087
1	1639	10088
1	1633	10089
1	1623	10090
1	1618	10091
1	1618	10092
1	1616	10093
