#Date:= 2024-10-01T15:13:04.082616
#Sampling Rate(Hz):= 1000
#Labels:= LOD	ECG	TS
1	1673	20
1	1674	21
1	1672	22
1	1083	23
1	1148	24
1	1240	25
1	1343	26
1	1468	27
1	1600	28
1	1733	29
1	1857	30
1	1956	31
1	2027	32
1	2080	33
1	2113	34
1	2129	35
1	2131	36
1	2143	37
1	2145	38
1	2148	39
1	2157	40
1	2172	41
1	2194	42
1	2222	43
1	2261	44
1	2287	45
1	2309	46
1	2316	47
1	2327	48
1	2329	49
1	2318	50
1	2291	51
1	2253	52
1	2183	53
1	2099	54
1	2000	55
1	1895	56
1	1791	57
1	1700	58
1	1621	59
1	1556	60
1	1512	61
1	1480	62
1	1469	63
1	1469	64
1	1476	65
1	1495	66
1	1530	67
1	1576	68
1	1623	69
1	1660	70
1	1688	71
1	1702	72
1	1701	73
1	1679	74
1	1639	75
1	1594	76
1	1536	77
1	1482	78
1	1440	79
1	1413	80
1	1400	81
1	1412	82
1	1434	83
1	1463	84
1	1497	85
1	1537	86
1	1589	87
1	1645	88
1	1703	89
1	1755	90
1	1796	91
1	1815	92
1	1801	93
1	1775	94
1	1731	95
1	1681	96
1	1634	97
1	1583	98
1	1542	99
1	1515	100
1	1503	101
1	1504	102
1	1525	103
1	1554	104
1	1585	105
1	1633	106
1	1684	107
1	1737	108
1	1795	109
1	1845	110
1	1880	111
1	1896	112
1	1888	113
1	1856	114
1	1801	115
1	1743	116
1	1686	117
1	1633	118
1	1583	119
1	1544	120
1	1521	121
1	1508	122
1	1517	123
1	1538	124
1	1559	125
1	1597	126
1	1644	127
1	1710	128
1	1775	129
1	1841	130
1	1883	131
1	1917	132
1	1926	133
1	1916	134
1	1878	135
1	1835	136
1	1773	137
1	1725	138
1	1684	139
1	1650	140
1	1633	141
1	1634	142
1	1645	143
1	1666	144
1	1697	145
1	1742	146
1	1791	147
1	1860	148
1	1922	149
1	1980	150
1	2024	151
1	2034	152
1	2027	153
1	2000	154
1	1948	155
1	1885	156
1	1827	157
1	1760	158
1	1704	159
1	1660	160
1	1629	161
1	1619	162
1	1625	163
1	1647	164
1	1683	165
1	1728	166
1	1782	167
1	1852	168
1	1920	169
1	1981	170
1	2027	171
1	2064	172
1	2066	173
1	2043	174
1	2000	175
1	1947	176
1	1890	177
1	1834	178
1	1785	179
1	1754	180
1	1741	181
1	1738	182
1	1751	183
1	1780	184
1	1819	185
1	1868	186
1	1927	187
1	1998	188
1	2066	189
1	2126	190
1	2169	191
1	2186	192
1	2183	193
1	2152	194
1	2102	195
1	2043	196
1	1979	197
1	1911	198
1	1857	199
1	1817	200
1	1791	201
1	1799	202
1	1830	203
1	1868	204
1	1916	205
1	1973	206
1	2034	207
1	2102	208
1	2174	209
1	2248	210
1	2297	211
1	2323	212
1	2325	213
1	2302	214
1	2261	215
1	2209	216
1	2157	217
1	2094	218
1	2027	219
1	1973	220
1	1931	221
1	1910	222
1	1913	223
1	1935	224
1	1975	225
1	2034	226
1	2105	227
1	2184	228
1	2273	229
1	2339	230
1	2387	231
1	2407	232
1	2397	233
1	2361	234
1	2298	235
1	2231	236
1	2147	237
1	2068	238
1	2003	239
1	1956	240
1	1931	241
1	1921	242
1	1931	243
1	1958	244
1	1992	245
1	2034	246
1	2102	247
1	2170	248
1	2245	249
1	2312	250
1	2362	251
1	2391	252
1	2391	253
1	2363	254
1	2312	255
1	2257	256
1	2185	257
1	2129	258
1	2079	259
1	2037	260
1	2012	261
1	2007	262
1	2012	263
1	2027	264
1	2057	265
1	2097	266
1	2150	267
1	2213	268
1	2285	269
1	2341	270
1	2381	271
1	2392	272
1	2381	273
1	2351	274
1	2303	275
1	2240	276
1	2176	277
1	2106	278
1	2048	279
1	2000	280
1	1971	281
1	1962	282
1	1969	283
1	1992	284
1	2025	285
1	2070	286
1	2122	287
1	2186	288
1	2257	289
1	2313	290
1	2350	291
1	2374	292
1	2368	293
1	2341	294
1	2296	295
1	2241	296
1	2179	297
1	2122	298
1	2073	299
1	2040	300
1	2019	301
1	2012	302
1	2021	303
1	2047	304
1	2079	305
1	2125	306
1	2188	307
1	2262	308
1	2325	309
1	2381	310
1	2422	311
1	2436	312
1	2423	313
1	2386	314
1	2327	315
1	2264	316
1	2183	317
1	2120	318
1	2066	319
1	2026	320
1	1998	321
1	1990	322
1	1995	323
1	2006	324
1	2044	325
1	2093	326
1	2147	327
1	2215	328
1	2288	329
1	2354	330
1	2401	331
1	2425	332
1	2424	333
1	2392	334
1	2331	335
1	2264	336
1	2197	337
1	2139	338
1	2096	339
1	2061	340
1	2048	341
1	2040	342
1	2047	343
1	2070	344
1	2108	345
1	2157	346
1	2219	347
1	2284	348
1	2359	349
1	2431	350
1	2485	351
1	2515	352
1	2516	353
1	2502	354
1	2460	355
1	2404	356
1	2341	357
1	2275	358
1	2217	359
1	2170	400
1	2154	401
1	2152	402
1	2165	403
1	2192	404
1	2232	405
1	2284	406
1	2343	407
1	2407	408
1	2472	409
1	2520	410
1	2558	411
1	2580	412
1	2577	413
1	2545	414
1	2503	415
1	2445	416
1	2382	417
1	2325	418
1	2275	419
1	2204	380
1	2183	381
1	2183	382
1	2192	383
1	2212	384
1	2246	385
1	2288	386
1	2341	387
1	2405	388
1	2471	389
1	2521	390
1	2559	391
1	2572	392
1	2563	393
1	2528	394
1	2477	395
1	2408	396
1	2341	397
1	2273	398
1	2210	399
1	2176	360
1	2152	361
1	2133	362
1	2137	363
1	2156	364
1	2179	365
1	2215	366
1	2276	367
1	2341	368
1	2404	369
1	2460	370
1	2499	371
1	2515	372
1	2513	373
1	2495	374
1	2459	375
1	2410	376
1	2349	377
1	2288	378
1	2242	379
1	2233	420
1	2205	421
1	2188	422
1	2194	423
1	2212	424
1	2242	425
1	2283	426
1	2332	427
1	2397	428
1	2449	429
1	2488	430
1	2504	431
1	2515	432
1	2501	433
1	2464	434
1	2397	435
1	2328	436
1	2253	437
1	2186	438
1	2143	439
1	2118	440
1	2113	441
1	2132	442
1	2161	443
1	2201	444
1	2257	445
1	2314	446
1	2381	447
1	2456	448
1	2515	449
1	2558	450
1	2588	451
1	2583	452
1	2559	453
1	2516	454
1	2459	455
1	2390	456
1	2327	457
1	2264	458
1	2210	459
1	2171	460
1	2153	461
1	2152	462
1	2165	463
1	2183	464
1	2210	465
1	2253	466
1	2300	467
1	2356	468
1	2418	469
1	2471	470
1	2500	471
1	2513	472
1	2503	473
1	2471	474
1	2411	475
1	2348	476
1	2288	477
1	2236	478
1	2189	479
1	2159	480
1	2143	481
1	2131	482
1	2137	483
1	2162	484
1	2195	485
1	2246	486
1	2314	487
1	2385	488
1	2458	489
1	2514	490
1	2554	491
1	2571	492
1	2561	493
1	2527	494
1	2485	495
1	2421	496
1	2351	497
1	2288	498
1	2237	499
1	2192	500
1	2165	501
1	2167	502
1	2174	503
1	2196	504
1	2230	505
1	2276	506
1	2336	507
1	2392	508
1	2454	509
1	2500	510
1	2526	511
1	2538	512
1	2534	513
1	2511	514
1	2471	515
1	2417	516
1	2359	517
1	2293	518
1	2236	519
1	2184	520
1	2157	521
1	2145	522
1	2147	523
1	2165	524
1	2197	525
1	2250	526
1	2312	527
1	2375	528
1	2440	529
1	2496	530
1	2532	531
1	2555	532
1	2554	533
1	2525	534
1	2479	535
1	2413	536
1	2332	537
1	2254	538
1	2183	539
1	2135	540
1	2111	541
1	2105	542
1	2119	543
1	2152	544
1	2186	545
1	2237	546
1	2305	547
1	2367	548
1	2427	549
1	2469	550
1	2493	551
1	2492	552
1	2471	553
1	2426	554
1	2371	555
1	2314	556
1	2250	557
1	2197	558
1	2157	559
1	2120	560
1	2097	561
1	2097	562
1	2109	563
1	2136	564
1	2179	565
1	2232	566
1	2287	567
1	2350	568
1	2412	569
1	2464	570
1	2496	571
1	2499	572
1	2492	573
1	2458	574
1	2408	575
1	2349	576
1	2292	577
1	2234	578
1	2171	579
1	2129	580
1	2105	581
1	2096	582
1	2105	583
1	2121	584
1	2154	585
1	2195	586
1	2253	587
1	2320	588
1	2392	589
1	2449	590
1	2493	591
1	2515	592
1	2513	593
1	2485	594
1	2428	595
1	2366	596
1	2300	597
1	2236	598
1	2183	599
1	2143	600
1	2117	601
1	2106	602
1	2122	603
1	2156	604
1	2188	605
1	2237	606
1	2294	607
1	2359	608
1	2422	609
1	2464	610
1	2489	611
1	2488	612
1	2466	613
1	2417	614
1	2344	615
1	2268	616
1	2174	617
1	2100	618
1	2037	619
1	1996	620
1	1974	621
1	1985	622
1	2011	623
1	2039	624
1	2093	625
1	2156	626
1	2222	627
1	2312	628
1	2402	629
1	2485	630
1	2545	631
1	2600	632
1	2642	633
1	2664	634
1	2664	635
1	2650	636
1	2631	637
1	2611	638
1	2603	639
1	2622	640
1	2663	641
1	2720	642
1	2799	643
1	2886	644
1	2986	645
1	3089	646
1	3130	647
1	3130	648
1	3130	649
1	3130	650
1	3130	651
1	3130	652
1	3130	653
1	3130	654
1	3130	655
1	3130	656
1	3082	657
1	2964	658
1	2847	659
1	2742	660
1	2652	661
1	2572	662
1	2523	663
1	2498	664
1	2485	665
1	2489	666
1	2515	667
1	2558	668
1	2605	669
1	2658	670
1	2694	671
1	2704	672
1	2687	673
1	2647	674
1	2585	675
1	2520	676
1	2446	677
1	2377	678
1	2318	679
1	2277	680
1	2252	681
1	2243	682
1	2245	683
1	2261	684
1	2287	685
1	2327	686
1	2386	687
1	2458	688
1	2519	689
1	2571	690
1	2608	691
1	2623	692
1	2611	693
1	2581	694
1	2537	695
1	2496	696
1	2450	697
1	2399	698
1	2358	699
1	2320	700
1	2298	701
1	2294	702
1	2305	703
1	2328	704
1	2367	705
1	2412	706
1	2467	707
1	2525	708
1	2592	709
1	2644	710
1	2679	711
1	2695	712
1	2685	713
1	2655	714
1	2605	715
1	2558	716
1	2508	717
1	2453	718
1	2399	719
1	2359	720
1	2332	721
1	2319	722
1	2327	723
1	2351	724
1	2389	725
1	2436	726
1	2496	727
1	2568	728
1	2644	729
1	2717	730
1	2750	731
1	2779	732
1	2781	733
1	2756	734
1	2707	735
1	2655	736
1	2589	737
1	2535	738
1	2499	739
1	2471	740
1	2462	741
1	2471	742
1	2493	743
1	2516	744
1	2558	745
1	2601	746
1	2652	747
1	2707	748
1	2764	749
1	2816	750
1	2853	751
1	2866	752
1	2855	753
1	2825	754
1	2773	755
1	2714	756
1	2651	757
1	2599	758
1	2555	759
1	2522	760
1	2509	761
1	2506	762
1	2515	763
1	2536	764
1	2570	765
1	2608	766
1	2659	767
1	2711	768
1	2764	769
1	2802	770
1	2828	771
1	2835	772
1	2824	773
1	2795	774
1	2751	775
1	2704	776
1	2649	777
1	2596	778
1	2554	779
1	2524	780
1	2515	781
1	2516	782
1	2529	783
1	2555	784
1	2582	785
1	2624	786
1	2683	787
1	2747	788
1	2817	789
1	2876	790
1	2927	791
1	2954	792
1	2959	793
1	2938	794
1	2893	795
1	2842	796
1	2781	797
1	2724	798
1	2674	799
1	2638	800
1	2611	801
1	2604	802
1	2611	803
1	2633	804
1	2664	805
1	2700	806
1	2745	807
1	2801	808
1	2856	809
1	2904	810
1	2941	811
1	2959	812
1	2959	813
1	2938	814
1	2898	815
1	2854	816
1	2803	817
1	2755	818
1	2717	819
1	2685	820
1	2664	821
1	2662	822
1	2668	823
1	2685	824
1	2709	825
1	2745	826
1	2784	827
1	2835	828
1	2881	829
1	2919	830
1	2941	831
1	2943	832
1	2933	833
1	2893	834
1	2848	835
1	2793	836
1	2738	837
1	2682	838
1	2633	839
1	2597	840
1	2581	841
1	2581	842
1	2592	843
1	2623	844
1	2661	845
1	2720	846
1	2787	847
1	2861	848
1	2926	849
1	2976	850
1	3007	851
1	3013	852
1	2996	853
1	2961	854
1	2907	855
1	2847	856
1	2778	857
1	2725	858
1	2674	859
1	2514	880
1	2500	881
1	2498	882
1	2505	883
1	2522	884
1	2550	885
1	2592	886
1	2645	887
1	2707	888
1	2765	889
1	2815	890
1	2843	891
1	2842	892
1	2818	893
1	2764	894
1	2686	895
1	2606	896
1	2533	897
1	2476	898
1	2421	899
1	2640	860
1	2620	861
1	2622	862
1	2629	863
1	2644	864
1	2664	865
1	2692	866
1	2729	867
1	2773	868
1	2819	869
1	2855	870
1	2877	871
1	2869	872
1	2836	873
1	2790	874
1	2734	875
1	2673	876
1	2623	877
1	2573	878
1	2535	879
1	2384	900
1	2366	901
1	2352	902
1	2358	903
1	2379	904
1	2406	905
1	2449	906
1	2508	907
1	2563	908
1	2626	909
1	2678	910
1	2721	911
1	2738	912
1	2734	913
1	2700	914
1	2649	915
1	2589	916
1	2523	917
1	2471	918
1	2418	919
1	2381	920
1	2367	921
1	2377	922
1	2393	923
1	2420	924
1	2453	925
1	2509	926
1	2568	927
1	2621	928
1	2677	929
1	2718	930
1	2738	931
1	2731	932
1	2706	933
1	2662	934
1	2605	935
1	2548	936
1	2496	937
1	2445	938
1	2403	939
1	2346	960
1	2323	961
1	2309	962
1	2314	963
1	2328	964
1	2354	965
1	2393	966
1	2458	967
1	2519	968
1	2581	969
1	2635	970
1	2673	971
1	2685	972
1	2676	973
1	2647	974
1	2605	975
1	2566	976
1	2519	977
1	2485	978
1	2445	979
1	2372	940
1	2364	941
1	2366	942
1	2380	943
1	2414	944
1	2459	945
1	2513	946
1	2573	947
1	2626	948
1	2680	949
1	2719	950
1	2741	951
1	2741	952
1	2722	953
1	2682	954
1	2625	955
1	2559	956
1	2498	957
1	2437	958
1	2385	959
1	2412	980
1	2384	981
1	2377	982
1	2366	983
1	2362	984
1	2369	985
1	2403	986
1	2453	987
1	2512	988
1	2568	989
1	2622	990
1	2658	991
1	2675	992
1	2669	993
1	2644	994
1	2588	995
1	2524	996
1	2469	997
1	2395	998
1	2336	999
1	2288	1000
1	2255	1001
1	2238	1002
1	2238	1003
1	2251	1004
1	2273	1005
1	2304	1006
1	2348	1007
1	2405	1008
1	2471	1009
1	2524	1010
1	2572	1011
1	2605	1012
1	2617	1013
1	2602	1014
1	2573	1015
1	2535	1016
1	2496	1017
1	2444	1018
1	2393	1019
1	2359	1020
1	2335	1021
1	2313	1022
1	2307	1023
1	2315	1024
1	2340	1025
1	2380	1026
1	2431	1027
1	2497	1028
1	2546	1029
1	2583	1030
1	2625	1031
1	2640	1032
1	2639	1033
1	2617	1034
1	2576	1035
1	2525	1036
1	2476	1037
1	2418	1038
1	2366	1039
1	2231	1060
1	2199	1061
1	2191	1062
1	2198	1063
1	2217	1064
1	2251	1065
1	2298	1066
1	2362	1067
1	2426	1068
1	2496	1069
1	2543	1070
1	2579	1071
1	2592	1072
1	2581	1073
1	2549	1074
1	2507	1075
1	2451	1076
1	2393	1077
1	2340	1078
1	2296	1079
1	2319	1040
1	2293	1041
1	2285	1042
1	2289	1043
1	2310	1044
1	2341	1045
1	2393	1046
1	2451	1047
1	2514	1048
1	2571	1049
1	2620	1050
1	2645	1051
1	2644	1052
1	2622	1053
1	2579	1054
1	2522	1055
1	2461	1056
1	2394	1057
1	2328	1058
1	2275	1059
1	2271	1100
1	2233	1101
1	2218	1102
1	2222	1103
1	2248	1104
1	2282	1105
1	2327	1106
1	2381	1107
1	2440	1108
1	2495	1109
1	2526	1110
1	2554	1111
1	2551	1112
1	2536	1113
1	2507	1114
1	2453	1115
1	2384	1116
1	2323	1117
1	2259	1118
1	2196	1119
1	2266	1080
1	2254	1081
1	2248	1082
1	2261	1083
1	2279	1084
1	2310	1085
1	2354	1086
1	2421	1087
1	2489	1088
1	2547	1089
1	2602	1090
1	2644	1091
1	2664	1092
1	2664	1093
1	2638	1094
1	2590	1095
1	2532	1096
1	2462	1097
1	2390	1098
1	2327	1099
1	2154	1120
1	2122	1121
1	2107	1122
1	2107	1123
1	2117	1124
1	2140	1125
1	2181	1126
1	2238	1127
1	2299	1128
1	2356	1129
1	2402	1130
1	2435	1131
1	2445	1132
1	2431	1133
1	2393	1134
1	2341	1135
1	2284	1136
1	2210	1137
1	2141	1138
1	2079	1139
1	2034	1140
1	2003	1141
1	1985	1142
1	1992	1143
1	2011	1144
1	2042	1145
1	2089	1146
1	2160	1147
1	2234	1148
1	2291	1149
1	2338	1150
1	2366	1151
1	2369	1152
1	2355	1153
1	2314	1154
1	2255	1155
1	2182	1156
1	2097	1157
1	2040	1158
1	1991	1159
1	1966	1180
1	1926	1181
1	1900	1182
1	1890	1183
1	1890	1184
1	1901	1185
1	1925	1186
1	1956	1187
1	2001	1188
1	2053	1189
1	2097	1190
1	2132	1191
1	2154	1192
1	2142	1193
1	2106	1194
1	2055	1195
1	2000	1196
1	1944	1197
1	1884	1198
1	1842	1199
1	1957	1160
1	1938	1161
1	1944	1162
1	1957	1163
1	1983	1164
1	2021	1165
1	2076	1166
1	2135	1167
1	2201	1168
1	2263	1169
1	2307	1170
1	2332	1171
1	2332	1172
1	2315	1173
1	2287	1174
1	2237	1175
1	2174	1176
1	2123	1177
1	2066	1178
1	2014	1179
1	1809	1200
1	1791	1201
1	1780	1202
1	1782	1203
1	1790	1204
1	1796	1205
1	1819	1206
1	1856	1207
1	1896	1208
1	1935	1209
1	1968	1210
1	1994	1211
1	2003	1212
1	2002	1213
1	1983	1214
1	1948	1215
1	1908	1216
1	1868	1217
1	1842	1218
1	1832	1219
1	1841	1220
1	1868	1221
1	1918	1222
1	1976	1223
1	2028	1224
1	2091	1225
1	2181	1226
1	2272	1227
1	2377	1228
1	2486	1229
1	2572	1230
1	2655	1231
1	2714	1232
1	2755	1233
1	2773	1234
1	2770	1235
1	2758	1236
1	2743	1237
1	2730	1238
1	2719	1239
1	2716	1240
1	2725	1241
1	2730	1242
1	2729	1243
1	2717	1244
1	2699	1245
1	2681	1246
1	2661	1247
1	2653	1248
1	2644	1249
1	2628	1250
1	2597	1251
1	2558	1252
1	2506	1253
1	2434	1254
1	2346	1255
1	2260	1256
1	2166	1257
1	2081	1258
1	2009	1259
1	1950	1260
1	1913	1261
1	1885	1262
1	1881	1263
1	1885	1264
1	1896	1265
1	1922	1266
1	1966	1267
1	2012	1268
1	2057	1269
1	2093	1270
1	2111	1271
1	2101	1272
1	2065	1273
1	2009	1274
1	1944	1275
1	1869	1276
1	1785	1277
1	1721	1278
1	1662	1279
1	1625	1280
1	1600	1281
1	1605	1282
1	1619	1283
1	1649	1284
1	1695	1285
1	1753	1286
1	1834	1287
1	1919	1288
1	2000	1289
1	2070	1290
1	2120	1291
1	2133	1292
1	2129	1293
1	2096	1294
1	2044	1295
1	1977	1296
1	1915	1297
1	1845	1298
1	1783	1299
1	1740	1300
1	1716	1301
1	1712	1302
1	1723	1303
1	1749	1304
1	1783	1305
1	1834	1306
1	1888	1307
1	1950	1308
1	2018	1309
1	2076	1310
1	2115	1311
1	2140	1312
1	2137	1313
1	2108	1314
1	2061	1315
1	1999	1316
1	1932	1317
1	1872	1318
1	1831	1319
1	1800	1320
1	1791	1321
1	1790	1322
1	1799	1323
1	1823	1324
1	1849	1325
1	1886	1326
1	1933	1327
1	1997	1328
1	2053	1329
1	2093	1330
1	2129	1331
1	2123	1332
1	2101	1333
1	2052	1334
1	1986	1335
1	1922	1336
1	1864	1337
1	1817	1338
1	1777	1339
1	1749	1340
1	1733	1341
1	1730	1342
1	1738	1343
1	1754	1344
1	1779	1345
1	1825	1346
1	1867	1347
1	1910	1348
1	1952	1349
1	1989	1350
1	2014	1351
1	2020	1352
1	2013	1353
1	1989	1354
1	1949	1355
1	1896	1356
1	1855	1357
1	1813	1358
1	1779	1359
1	1765	1360
1	1770	1361
1	1792	1362
1	1826	1363
1	1863	1364
1	1904	1365
1	1952	1366
1	2008	1367
1	2054	1368
1	2105	1369
1	2141	1370
1	2150	1371
1	2145	1372
1	2115	1373
1	2066	1374
1	2008	1375
1	1948	1376
1	1886	1377
1	1840	1378
1	1791	1379
1	1764	1380
1	1743	1381
1	1738	1382
1	1749	1383
1	1770	1384
1	1811	1385
1	1857	1386
1	1924	1387
1	1991	1388
1	2048	1389
1	2089	1390
1	2110	1391
1	2105	1392
1	2079	1393
1	2028	1394
1	1965	1395
1	1895	1396
1	1819	1397
1	1764	1398
1	1711	1399
1	1671	1400
1	1643	1401
1	1643	1402
1	1660	1403
1	1693	1404
1	1737	1405
1	1791	1406
1	1866	1407
1	1944	1408
1	2021	1409
1	2091	1410
1	2142	1411
1	2157	1412
1	2146	1413
1	2104	1414
1	2028	1415
1	1944	1416
1	1862	1417
1	1786	1418
1	1728	1419
1	1685	1420
1	1655	1421
1	1638	1422
1	1644	1423
1	1660	1424
1	1691	1425
1	1741	1426
1	1802	1427
1	1867	1428
1	1921	1429
1	1961	1430
1	1983	1431
1	1983	1432
1	1963	1433
1	1924	1434
1	1870	1435
1	1819	1436
1	1761	1437
1	1708	1438
1	1657	1439
1	1607	1440
1	1560	1441
1	1529	1442
1	1529	1443
1	1539	1444
1	1564	1445
1	1607	1446
1	1673	1447
1	1747	1448
1	1833	1449
1	1913	1450
1	1985	1451
1	2026	1452
1	2027	1453
1	1993	1454
1	1935	1455
1	1871	1456
1	1776	1457
1	1698	1458
1	1607	1459
1	1537	1460
1	1489	1461
1	1476	1462
1	1487	1463
1	1523	1464
1	1589	1465
1	1686	1466
1	1782	1467
1	1867	1468
1	1916	1469
1	1938	1470
1	1936	1471
1	1895	1472
1	1839	1473
1	1751	1474
1	1639	1475
1	1501	1476
1	1351	1477
1	1199	1478
1	1055	1479
1	927	1480
1	829	1481
1	756	1482
1	692	1483
1	644	1484
1	612	1485
1	590	1486
1	581	1487
1	594	1488
1	623	1489
1	652	1490
1	665	1491
1	643	1492
1	577	1493
1	468	1494
1	341	1495
1	212	1496
1	128	1497
1	128	1498
1	128	1499
1	128	1500
1	128	1501
1	128	1502
1	128	1503
1	128	1504
1	128	1505
1	128	1506
1	128	1507
1	128	1508
1	169	1509
1	242	1510
1	298	1511
1	328	1512
1	334	1513
1	316	1514
1	270	1515
1	202	1516
1	128	1517
1	128	1518
1	128	1519
1	128	1520
1	128	1521
1	128	1522
1	128	1523
1	128	1524
1	128	1525
1	128	1526
1	128	1527
1	128	1528
1	153	1529
1	215	1530
1	262	1531
1	285	1532
1	283	1533
1	250	1534
1	183	1535
1	128	1536
1	128	1537
1	128	1538
1	128	1539
1	128	1540
1	128	1541
1	128	1542
1	128	1543
1	128	1544
1	128	1545
1	128	1546
1	128	1547
1	128	1548
1	128	1549
1	128	1550
1	128	1551
1	128	1552
1	128	1553
1	128	1554
1	128	1555
1	128	1556
1	128	1557
1	128	1558
1	128	1559
1	128	1560
1	128	1561
1	128	1562
1	128	1563
1	128	1564
1	128	1565
1	128	1566
1	128	1567
1	128	1568
1	128	1569
1	128	1570
1	128	1571
1	128	1572
1	128	1573
1	128	1574
1	128	1575
1	128	1576
1	128	1577
1	128	1578
1	128	1579
1	128	1580
1	128	1581
1	128	1582
1	128	1583
1	128	1584
1	128	1585
1	128	1586
1	128	1587
1	128	1588
1	128	1589
1	128	1590
1	128	1591
1	128	1592
1	128	1593
1	128	1594
1	128	1595
1	128	1596
1	128	1597
1	128	1598
1	128	1599
1	128	1600
1	128	1601
1	128	1602
1	128	1603
1	128	1604
1	128	1605
1	128	1606
1	128	1607
1	128	1608
1	128	1609
1	128	1610
1	128	1611
1	128	1612
1	128	1613
1	128	1614
1	128	1615
1	128	1616
1	128	1617
1	128	1618
1	128	1619
1	128	1620
1	128	1621
1	128	1622
1	128	1623
1	128	1624
1	128	1625
1	128	1626
1	128	1627
1	128	1628
1	128	1629
1	128	1630
1	128	1631
1	128	1632
1	128	1633
1	128	1634
1	128	1635
1	128	1636
1	128	1637
1	128	1638
1	128	1639
1	128	1640
1	128	1641
1	128	1642
1	128	1643
1	128	1644
1	128	1645
1	128	1646
1	128	1647
1	128	1648
1	128	1649
1	128	1650
1	128	1651
1	128	1652
1	128	1653
1	128	1654
1	128	1655
1	128	1656
1	128	1657
1	128	1658
1	128	1659
1	128	1660
1	128	1661
1	128	1662
1	128	1663
1	128	1664
1	128	1665
1	128	1666
1	128	1667
1	128	1668
1	128	1669
1	128	1670
1	128	1671
1	128	1672
1	128	1673
1	128	1674
1	128	1675
1	128	1676
1	128	1677
1	128	1678
1	128	1679
1	128	1680
1	128	1681
1	128	1682
1	128	1683
1	128	1684
1	128	1685
1	128	1686
1	128	1687
1	128	1688
1	128	1689
1	128	1690
1	139	1691
1	222	1692
1	298	1693
1	355	1694
1	403	1695
1	447	1696
1	495	1697
1	535	1698
1	591	1699
1	656	1700
1	731	1701
1	843	1702
1	954	1703
1	1080	1704
1	1197	1705
1	1321	1706
1	1464	1707
1	1610	1708
1	1752	1709
1	1869	1710
1	1957	1711
1	2005	1712
1	2018	1713
1	1998	1714
1	1936	1715
1	1856	1716
1	1777	1717
1	1700	1718
1	1647	1719
1	1634	1720
1	1645	1721
1	1682	1722
1	1742	1723
1	1825	1724
1	1912	1725
1	2026	1726
1	2153	1727
1	2290	1728
1	2424	1729
1	2535	1730
1	2624	1731
1	2685	1732
1	2715	1733
1	2709	1734
1	2675	1735
1	2626	1736
1	2562	1737
1	2500	1738
1	2449	1739
1	2434	1740
1	2456	1741
1	2509	1742
1	2561	1743
1	2646	1744
1	2738	1745
1	2836	1746
1	2949	1747
1	3085	1748
1	3130	1749
1	3130	1750
1	3130	1751
1	3130	1752
1	3130	1753
1	3130	1754
1	3130	1755
1	3130	1756
1	3130	1757
1	3130	1758
1	3130	1759
1	3130	1760
1	3130	1761
1	3130	1762
1	3130	1763
1	3130	1764
1	3130	1765
1	3130	1766
1	3130	1767
1	3130	1768
1	3130	1769
1	3130	1770
1	3130	1771
1	3130	1772
1	3130	1773
1	3130	1774
1	3130	1775
1	3130	1776
1	3130	1777
1	3130	1778
1	3130	1779
1	3130	1780
1	3130	1781
1	3130	1782
1	3130	1783
1	3130	1784
1	3130	1785
1	3130	1786
1	3130	1787
1	3130	1788
1	3130	1789
1	3130	1790
1	3130	1791
1	3130	1792
1	3130	1793
1	3130	1794
1	3130	1795
1	3130	1796
1	3130	1797
1	3130	1798
1	3130	1799
1	3130	1800
1	3130	1801
1	3130	1802
1	3130	1803
1	3130	1804
1	3130	1805
1	3130	1806
1	3130	1807
1	3130	1808
1	3130	1809
1	3130	1810
1	3130	1811
1	3130	1812
1	3130	1813
1	3130	1814
1	3130	1815
1	3130	1816
1	3130	1817
1	3130	1818
1	3130	1819
1	3114	1820
1	3059	1821
1	3035	1822
1	3036	1823
1	3051	1824
1	3087	1825
1	3130	1826
1	3130	1827
1	3130	1828
1	3130	1829
1	3130	1830
1	3130	1831
1	3130	1832
1	3130	1833
1	3130	1834
1	3130	1835
1	3130	1836
1	3078	1837
1	3027	1838
1	2979	1839
1	2474	1860
1	2318	1861
1	2145	1862
1	2039	1863
1	1930	1864
1	1836	1865
1	1760	1866
1	1714	1867
1	1685	1868
1	1662	1869
1	1643	1870
1	1618	1871
1	1581	1872
1	1530	1873
1	1463	1874
1	1382	1875
1	1310	1876
1	1233	1877
1	1181	1878
1	1132	1879
1	2953	1840
1	2926	1841
1	2916	1842
1	2925	1843
1	2961	1844
1	3004	1845
1	3075	1846
1	3130	1847
1	3130	1848
1	3130	1849
1	3130	1850
1	3130	1851
1	3130	1852
1	3130	1853
1	3130	1854
1	3117	1855
1	3006	1856
1	2880	1857
1	2747	1858
1	2608	1859
1	1089	1880
1	1067	1881
1	1064	1882
1	1071	1883
1	1089	1884
1	1122	1885
1	1172	1886
1	1233	1887
1	1298	1888
1	1348	1889
1	1384	1890
1	1399	1891
1	1384	1892
1	1366	1893
1	1329	1894
1	1279	1895
1	1227	1896
1	1176	1897
1	1131	1898
1	1086	1899
1	1054	1900
1	1031	1901
1	1019	1902
1	1020	1903
1	1035	1904
1	1063	1905
1	1096	1906
1	1133	1907
1	1161	1908
1	1188	1909
1	1199	1910
1	1188	1911
1	1162	1912
1	1110	1913
1	1044	1914
1	975	1915
1	913	1916
1	877	1917
1	861	1918
1	852	1919
1	841	1920
1	822	1921
1	806	1922
1	800	1923
1	796	1924
1	796	1925
1	810	1926
1	846	1927
1	888	1928
1	923	1929
1	941	1930
1	953	1931
1	941	1932
1	909	1933
1	852	1934
1	778	1935
1	698	1936
1	602	1937
1	534	1938
1	472	1939
1	429	1940
1	405	1941
1	408	1942
1	422	1943
1	433	1944
1	441	1945
1	435	1946
1	441	1947
1	457	1948
1	468	1949
1	481	1950
1	495	1951
1	480	1952
1	433	1953
1	351	1954
1	259	1955
1	166	1956
1	128	1957
1	128	1958
1	128	1959
1	128	1960
1	128	1961
1	128	1962
1	128	1963
1	128	1964
1	128	1965
1	128	1966
1	128	1967
1	128	1968
1	128	1969
1	128	1970
1	128	1971
1	128	1972
1	128	1973
1	128	1974
1	128	1975
1	128	1976
1	128	1977
1	128	1978
1	128	1979
1	128	1980
1	128	1981
1	128	1982
1	128	1983
1	128	1984
1	128	1985
1	128	1986
1	128	1987
1	128	1988
1	128	1989
1	128	1990
1	128	1991
1	128	1992
1	128	1993
1	128	1994
1	128	1995
1	128	1996
1	128	1997
1	128	1998
1	128	1999
1	128	2000
1	128	2001
1	128	2002
1	128	2003
1	128	2004
1	128	2005
1	128	2006
1	128	2007
1	128	2008
1	128	2009
1	128	2010
1	128	2011
1	128	2012
1	128	2013
1	128	2014
1	128	2015
1	128	2016
1	128	2017
1	128	2018
1	128	2019
1	128	2020
1	128	2021
1	128	2022
1	128	2023
1	128	2024
1	128	2025
1	128	2026
1	128	2027
1	128	2028
1	128	2029
1	128	2030
1	128	2031
1	128	2032
1	128	2033
1	128	2034
1	128	2035
1	128	2036
1	128	2037
1	128	2038
1	128	2039
1	128	2040
1	128	2041
1	128	2042
1	128	2043
1	128	2044
1	128	2045
1	128	2046
1	128	2047
1	128	2048
1	128	2049
1	128	2050
1	128	2051
1	128	2052
1	128	2053
1	128	2054
1	128	2055
1	128	2056
1	128	2057
1	128	2058
1	128	2059
1	128	2060
1	128	2061
1	128	2062
1	128	2063
1	128	2064
1	128	2065
1	128	2066
1	128	2067
1	128	2068
1	128	2069
1	128	2070
1	128	2071
1	128	2072
1	128	2073
1	128	2074
1	128	2075
1	128	2076
1	128	2077
1	128	2078
1	128	2079
1	128	2080
1	128	2081
1	128	2082
1	128	2083
1	128	2084
1	128	2085
1	128	2086
1	128	2087
1	128	2088
1	128	2089
1	128	2090
1	128	2091
1	128	2092
1	128	2093
1	128	2094
1	128	2095
1	128	2096
1	128	2097
1	128	2098
1	128	2099
1	128	2100
1	128	2101
1	128	2102
1	128	2103
1	128	2104
1	193	2105
1	279	2106
1	378	2107
1	481	2108
1	584	2109
1	664	2110
1	725	2111
1	764	2112
1	769	2113
1	743	2114
1	695	2115
1	630	2116
1	533	2117
1	466	2118
1	400	2119
1	351	2120
1	328	2121
1	337	2122
1	364	2123
1	409	2124
1	470	2125
1	544	2126
1	646	2127
1	703	2128
1	772	2129
1	833	2130
1	874	2131
1	888	2132
1	874	2133
1	841	2134
1	792	2135
1	745	2136
1	704	2137
1	670	2138
1	659	2139
1	652	2140
1	665	2141
1	695	2142
1	738	2143
1	792	2144
1	847	2145
1	913	2146
1	1005	2147
1	1059	2148
1	1125	2149
1	1176	2150
1	1212	2151
1	1224	2152
1	1211	2153
1	1175	2154
1	1123	2155
1	1069	2156
1	1014	2157
1	963	2158
1	932	2159
1	918	2160
1	919	2161
1	941	2162
1	974	2163
1	1017	2164
1	1062	2165
1	1110	2166
1	1173	2167
1	1223	2168
1	1269	2169
1	1307	2170
1	1334	2171
1	1345	2172
1	1332	2173
1	1296	2174
1	1252	2175
1	1202	2176
1	1136	2177
1	1088	2178
1	1035	2179
1	999	2180
1	974	2181
1	975	2182
1	988	2183
1	1022	2184
1	1071	2185
1	1135	2186
1	1211	2187
1	1291	2188
1	1364	2189
1	1424	2190
1	1455	2191
1	1463	2192
1	1450	2193
1	1409	2194
1	1337	2195
1	1267	2196
1	1202	2197
1	1140	2198
1	1089	2199
1	1055	2200
1	1036	2201
1	1043	2202
1	1067	2203
1	1107	2204
1	1155	2205
1	1214	2206
1	1288	2207
1	1346	2208
1	1418	2209
1	1467	2210
1	1494	2211
1	1501	2212
1	1476	2213
1	1433	2214
1	1372	2215
1	1315	2216
1	1259	2217
1	1202	2218
1	1157	2219
1	1122	2220
1	1104	2221
1	1099	2222
1	1110	2223
1	1129	2224
1	1162	2225
1	1219	2226
1	1296	2227
1	1384	2228
1	1462	2229
1	1520	2230
1	1569	2231
1	1598	2232
1	1616	2233
1	1619	2234
1	1607	2235
1	1582	2236
1	1544	2237
1	1515	2238
1	1481	2239
1	1453	2240
1	1441	2241
1	1450	2242
1	1477	2243
1	1520	2244
1	1570	2245
1	1612	2246
1	1656	2247
1	1692	2248
1	1720	2249
1	1738	2250
1	1740	2251
1	1715	2252
1	1693	2253
1	1647	2254
1	1587	2255
1	1530	2256
1	1484	2257
1	1449	2258
1	1424	2259
1	1412	2260
1	1409	2261
1	1423	2262
1	1449	2263
1	1489	2264
1	1530	2265
1	1581	2266
1	1646	2267
1	1690	2268
1	1738	2269
1	1775	2270
1	1799	2271
1	1817	2272
1	1803	2273
1	1769	2274
1	1720	2275
1	1669	2276
1	1620	2277
1	1581	2278
1	1553	2279
1	1537	2280
1	1532	2281
1	1533	2282
1	1550	2283
1	1579	2284
1	1610	2285
1	1660	2286
1	1726	2287
1	1791	2288
1	1854	2289
1	1899	2290
1	1935	2291
1	1948	2292
1	1938	2293
1	1904	2294
1	1845	2295
1	1773	2296
1	1692	2297
1	1647	2298
1	1610	2299
1	1593	2300
1	1594	2301
1	1621	2302
1	1658	2303
1	1701	2304
1	1751	2305
1	1816	2306
1	1890	2307
1	1968	2308
1	2042	2309
1	2102	2310
1	2139	2311
1	2145	2312
1	2131	2313
1	2101	2314
1	2053	2315
1	2000	2316
1	1945	2317
1	1886	2318
1	1843	2319
1	1947	2340
1	1943	2341
1	1940	2342
1	1948	2343
1	1968	2344
1	1992	2345
1	2026	2346
1	2079	2347
1	2133	2348
1	2194	2349
1	2246	2350
1	2279	2351
1	2300	2352
1	2304	2353
1	2287	2354
1	2250	2355
1	2201	2356
1	2135	2357
1	2102	2358
1	2061	2359
1	1813	2320
1	1796	2321
1	1799	2322
1	1817	2323
1	1842	2324
1	1869	2325
1	1909	2326
1	1960	2327
1	2015	2328
1	2066	2329
1	2105	2330
1	2132	2331
1	2143	2332
1	2135	2333
1	2113	2334
1	2078	2335
1	2047	2336
1	2009	2337
1	1976	2338
1	1957	2339
1	2038	2360
1	2025	2361
1	2024	2362
1	2043	2363
1	2077	2364
1	2117	2365
1	2170	2366
1	2232	2367
1	2291	2368
1	2355	2369
1	2415	2370
1	2458	2371
1	2480	2372
1	2485	2373
1	2476	2374
1	2449	2375
1	2420	2376
1	2394	2377
1	2364	2378
1	2338	2379
1	2320	2380
1	2314	2381
1	2305	2382
1	2315	2383
1	2339	2384
1	2370	2385
1	2419	2386
1	2482	2387
1	2538	2388
1	2602	2389
1	2655	2390
1	2692	2391
1	2707	2392
1	2704	2393
1	2666	2394
1	2609	2395
1	2546	2396
1	2485	2397
1	2417	2398
1	2359	2399
1	2322	2400
1	2301	2401
1	2291	2402
1	2302	2403
1	2326	2404
1	2364	2405
1	2422	2406
1	2507	2407
1	2582	2408
1	2663	2409
1	2727	2410
1	2771	2411
1	2786	2412
1	2774	2413
1	2735	2414
1	2675	2415
1	2619	2416
1	2538	2417
1	2499	2418
1	2452	2419
1	2417	2420
1	2399	2421
1	2407	2422
1	2425	2423
1	2455	2424
1	2483	2425
1	2532	2426
1	2605	2427
1	2658	2428
1	2724	2429
1	2770	2430
1	2795	2431
1	2791	2432
1	2758	2433
1	2700	2434
1	2623	2435
1	2548	2436
1	2482	2437
1	2419	2438
1	2371	2439
1	2341	2460
1	2341	2461
1	2345	2462
1	2366	2463
1	2392	2464
1	2424	2465
1	2471	2466
1	2525	2467
1	2563	2468
1	2612	2469
1	2653	2470
1	2677	2471
1	2682	2472
1	2664	2473
1	2633	2474
1	2590	2475
1	2548	2476
1	2512	2477
1	2472	2478
1	2436	2479
1	2261	2480
1	2245	2481
1	2259	2482
1	2273	2483
1	2293	2484
1	2324	2485
1	2363	2486
1	2408	2487
1	2464	2488
1	2512	2489
1	2542	2490
1	2561	2491
1	2553	2492
1	2522	2493
1	2474	2494
1	2398	2495
1	2314	2496
1	2236	2497
1	2153	2498
1	2079	2499
1	2025	2500
1	1991	2501
1	1986	2502
1	2000	2503
1	2028	2504
1	2075	2505
1	2131	2506
1	2208	2507
1	2275	2508
1	2345	2509
1	2410	2510
1	2457	2511
1	2488	2512
1	2496	2513
1	2488	2514
1	2472	2515
1	2448	2516
1	2429	2517
1	2420	2518
1	2428	2519
1	2406	2480
1	2387	2481
1	2369	2482
1	2372	2483
1	2383	2484
1	2405	2485
1	2434	2486
1	2474	2487
1	2516	2488
1	2549	2489
1	2579	2490
1	2593	2491
1	2595	2492
1	2583	2493
1	2556	2494
1	2512	2495
1	2463	2496
1	2390	2497
1	2341	2498
1	2292	2499
1	2458	2520
1	2500	2521
1	2549	2522
1	2604	2523
1	2685	2524
1	2771	2525
1	2876	2526
1	2991	2527
1	3111	2528
1	3130	2529
1	3130	2530
1	3130	2531
1	3130	2532
1	3130	2533
1	3130	2534
1	3130	2535
1	3130	2536
1	3130	2537
1	3130	2538
1	3042	2539
1	2935	2540
1	2842	2541
1	2770	2542
1	2711	2543
1	2656	2544
1	2612	2545
1	2596	2546
1	2591	2547
1	2600	2548
1	2609	2549
1	2622	2550
1	2617	2551
1	2589	2552
1	2562	2553
1	2519	2554
1	2469	2555
1	2401	2556
1	2327	2557
1	2263	2558
1	2188	2559
1	2131	2560
1	2083	2561
1	2052	2562
1	2035	2563
1	2034	2564
1	2044	2565
1	2075	2566
1	2125	2567
1	2170	2568
1	2233	2569
1	2279	2570
1	2309	2571
1	2310	2572
1	2296	2573
1	2257	2574
1	2199	2575
1	2144	2576
1	2092	2577
1	2043	2578
1	2011	2579
1	1985	2580
1	1975	2581
1	1981	2582
1	1999	2583
1	2027	2584
1	2066	2585
1	2105	2586
1	2160	2587
1	2210	2588
1	2264	2589
1	2305	2590
1	2327	2591
1	2335	2592
1	2319	2593
1	2284	2594
1	2231	2595
1	2166	2596
1	2089	2597
1	2037	2598
1	1987	2599
1	1956	2600
1	1945	2601
1	1958	2602
1	1977	2603
1	2011	2604
1	2052	2605
1	2105	2606
1	2170	2607
1	2242	2608
1	2303	2609
1	2348	2610
1	2372	2611
1	2364	2612
1	2341	2613
1	2300	2614
1	2242	2615
1	2183	2616
1	2129	2617
1	2071	2618
1	2025	2619
1	1983	2620
1	1955	2621
1	1946	2622
1	1952	2623
1	1975	2624
1	2007	2625
1	2066	2626
1	2138	2627
1	2222	2628
1	2296	2629
1	2345	2630
1	2369	2631
1	2365	2632
1	2330	2633
1	2277	2634
1	2208	2635
1	2147	2636
1	2087	2637
1	2030	2638
1	1988	2639
1	1959	2640
1	1948	2641
1	1957	2642
1	1974	2643
1	2006	2644
1	2052	2645
1	2107	2646
1	2173	2647
1	2255	2648
1	2316	2649
1	2366	2650
1	2389	2651
1	2384	2652
1	2357	2653
1	2307	2654
1	2242	2655
1	2174	2656
1	2105	2657
1	2034	2658
1	1978	2659
1	1943	2660
1	1921	2661
1	1914	2662
1	1934	2663
1	1961	2664
1	1998	2665
1	2048	2666
1	2111	2667
1	2176	2668
1	2238	2669
1	2282	2670
1	2302	2671
1	2303	2672
1	2275	2673
1	2236	2674
1	2183	2675
1	2131	2676
1	2084	2677
1	2040	2678
1	2006	2679
1	1983	2700
1	1978	2701
1	1989	2702
1	2011	2703
1	2036	2704
1	2066	2705
1	2106	2706
1	2157	2707
1	2206	2708
1	2262	2709
1	2302	2710
1	2323	2711
1	2324	2712
1	2293	2713
1	2250	2714
1	2188	2715
1	2135	2716
1	2081	2717
1	2038	2718
1	2005	2719
1	1993	2700
1	1999	2701
1	2025	2702
1	2052	2703
1	2096	2704
1	2143	2705
1	2199	2706
1	2274	2707
1	2336	2708
1	2386	2709
1	2420	2710
1	2434	2711
1	2425	2712
1	2395	2713
1	2350	2714
1	2289	2715
1	2222	2716
1	2157	2717
1	2089	2718
1	2036	2719
1	1999	2720
1	1972	2721
1	1965	2722
1	1964	2723
1	1974	2724
1	1996	2725
1	2041	2726
1	2083	2727
1	2145	2728
1	2207	2729
1	2261	2730
1	2291	2731
1	2300	2732
1	2289	2733
1	2262	2734
1	2214	2735
1	2163	2736
1	2110	2737
1	2061	2738
1	2026	2739
1	1999	2740
1	1989	2741
1	1987	2742
1	1996	2743
1	2015	2744
1	2042	2745
1	2079	2746
1	2129	2747
1	2173	2748
1	2220	2749
1	2262	2750
1	2278	2751
1	2279	2752
1	2273	2753
1	2236	2754
1	2183	2755
1	2127	2756
1	2070	2757
1	2021	2758
1	1979	2759
1	1952	2760
1	1932	2761
1	1925	2762
1	1927	2763
1	1952	2764
1	1987	2765
1	2039	2766
1	2102	2767
1	2174	2768
1	2234	2769
1	2264	2770
1	2284	2771
1	2286	2772
1	2268	2773
1	2232	2774
1	2174	2775
1	2115	2776
1	2051	2777
1	1981	2778
1	1926	2779
1	1885	2780
1	1860	2781
1	1864	2782
1	1873	2783
1	1899	2784
1	1931	2785
1	1973	2786
1	2021	2787
1	2073	2788
1	2117	2789
1	2149	2790
1	2165	2791
1	2160	2792
1	2129	2793
1	2090	2794
1	2040	2795
1	1986	2796
1	1926	2797
1	1867	2798
1	1809	2799
1	1763	2800
1	1738	2801
1	1733	2802
1	1736	2803
1	1751	2804
1	1775	2805
1	1818	2806
1	1870	2807
1	1925	2808
1	1989	2809
1	2043	2810
1	2081	2811
1	2102	2812
1	2086	2813
1	2050	2814
1	1993	2815
1	1936	2816
1	1879	2817
1	1832	2818
1	1789	2819
1	1762	2820
1	1750	2821
1	1754	2822
1	1764	2823
1	1793	2824
1	1831	2825
1	1869	2826
1	1929	2827
1	1994	2828
1	2048	2829
1	2078	2830
1	2105	2831
1	2106	2832
1	2082	2833
1	2041	2834
1	1985	2835
1	1916	2836
1	1842	2837
1	1766	2838
1	1715	2839
1	1684	2840
1	1671	2841
1	1670	2842
1	1685	2843
1	1708	2844
1	1739	2845
1	1785	2846
1	1835	2847
1	1880	2848
1	1919	2849
1	1940	2850
1	1949	2851
1	1945	2852
1	1922	2853
1	1893	2854
1	1852	2855
1	1803	2856
1	1751	2857
1	1709	2858
1	1662	2859
1	1633	2860
1	1611	2861
1	1611	2862
1	1620	2863
1	1635	2864
1	1659	2865
1	1696	2866
1	1749	2867
1	1801	2868
1	1866	2869
1	1919	2870
1	1960	2871
1	1974	2872
1	1974	2873
1	1943	2874
1	1899	2875
1	1854	2876
1	1803	2877
1	1764	2878
1	1731	2879
1	1710	2880
1	1699	2881
1	1705	2882
1	1711	2883
1	1730	2884
1	1754	2885
1	1791	2886
1	1849	2887
1	1895	2888
1	1931	2889
1	1959	2890
1	1971	2891
1	1963	2892
1	1938	2893
1	1896	2894
1	1841	2895
1	1775	2896
1	1710	2897
1	1645	2898
1	1599	2899
1	1572	2900
1	1559	2901
1	1571	2902
1	1582	2903
1	1606	2904
1	1634	2905
1	1673	2906
1	1721	2907
1	1782	2908
1	1849	2909
1	1906	2910
1	1947	2911
1	1964	2912
1	1959	2913
1	1933	2914
1	1887	2915
1	1832	2916
1	1770	2917
1	1715	2918
1	1665	2919
1	1628	2920
1	1607	2921
1	1607	2922
1	1619	2923
1	1634	2924
1	1656	2925
1	1694	2926
1	1741	2927
1	1796	2928
1	1858	2929
1	1907	2930
1	1942	2931
1	1959	2932
1	1957	2933
1	1931	2934
1	1885	2935
1	1839	2936
1	1773	2937
1	1712	2938
1	1659	2939
1	1625	2940
1	1602	2941
1	1598	2942
1	1600	2943
1	1625	2944
1	1656	2945
1	1697	2946
1	1748	2947
1	1817	2948
1	1873	2949
1	1921	2950
1	1948	2951
1	1951	2952
1	1933	2953
1	1895	2954
1	1841	2955
1	1774	2956
1	1711	2957
1	1652	2958
1	1612	2959
1	1596	2960
1	1599	2961
1	1612	2962
1	1644	2963
1	1678	2964
1	1717	2965
1	1770	2966
1	1841	2967
1	1901	2968
1	1952	2969
1	1981	2970
1	1989	2971
1	1970	2972
1	1922	2973
1	1859	2974
1	1783	2975
1	1711	2976
1	1642	2977
1	1581	2978
1	1538	2979
1	1512	2980
1	1508	2981
1	1520	2982
1	1542	2983
1	1570	2984
1	1606	2985
1	1654	2986
1	1715	2987
1	1777	2988
1	1845	2989
1	1901	2990
1	1945	2991
1	1967	2992
1	1958	2993
1	1922	2994
1	1865	2995
1	1799	2996
1	1738	2997
1	1683	2998
1	1638	2999
1	1607	3000
1	1590	3001
1	1590	3002
1	1593	3003
1	1616	3004
1	1647	3005
1	1692	3006
1	1754	3007
1	1823	3008
1	1884	3009
1	1932	3010
1	1963	3011
1	1974	3012
1	1959	3013
1	1922	3014
1	1869	3015
1	1820	3016
1	1759	3017
1	1699	3018
1	1651	3019
1	1613	3020
1	1600	3021
1	1607	3022
1	1625	3023
1	1654	3024
1	1677	3025
1	1728	3026
1	1775	3027
1	1841	3028
1	1895	3029
1	1935	3030
1	1959	3031
1	1960	3032
1	1942	3033
1	1901	3034
1	1848	3035
1	1789	3036
1	1727	3037
1	1672	3038
1	1625	3039
1	1585	3040
1	1567	3041
1	1559	3042
1	1570	3043
1	1593	3044
1	1628	3045
1	1677	3046
1	1742	3047
1	1800	3048
1	1856	3049
1	1895	3050
1	1910	3051
1	1904	3052
1	1885	3053
1	1841	3054
1	1781	3055
1	1722	3056
1	1660	3057
1	1607	3058
1	1564	3059
1	1541	3060
1	1529	3061
1	1533	3062
1	1550	3063
1	1586	3064
1	1632	3065
1	1686	3066
1	1747	3067
1	1821	3068
1	1882	3069
1	1931	3070
1	1968	3071
1	1981	3072
1	1974	3073
1	1940	3074
1	1887	3075
1	1834	3076
1	1767	3077
1	1706	3078
1	1660	3079
1	1628	3080
1	1609	3081
1	1608	3082
1	1611	3083
1	1626	3084
1	1646	3085
1	1679	3086
1	1716	3087
1	1764	3088
1	1813	3089
1	1853	3090
1	1885	3091
1	1904	3092
1	1895	3093
1	1878	3094
1	1850	3095
1	1809	3096
1	1765	3097
1	1723	3098
1	1686	3099
1	1659	3100
1	1639	3101
1	1638	3102
1	1645	3103
1	1663	3104
1	1688	3105
1	1729	3106
1	1778	3107
1	1826	3108
1	1865	3109
1	1890	3110
1	1896	3111
1	1888	3112
1	1855	3113
1	1799	3114
1	1738	3115
1	1674	3116
1	1609	3117
1	1554	3118
1	1512	3119
1	1485	3120
1	1476	3121
1	1484	3122
1	1503	3123
1	1541	3124
1	1581	3125
1	1633	3126
1	1688	3127
1	1755	3128
1	1817	3129
1	1854	3130
1	1883	3131
1	1884	3132
1	1857	3133
1	1815	3134
1	1752	3135
1	1690	3136
1	1621	3137
1	1562	3138
1	1518	3139
1	1490	3140
1	1485	3141
1	1494	3142
1	1516	3143
1	1544	3144
1	1580	3145
1	1629	3146
1	1680	3147
1	1734	3148
1	1775	3149
1	1803	3150
1	1818	3151
1	1811	3152
1	1767	3153
1	1717	3154
1	1661	3155
1	1607	3156
1	1556	3157
1	1524	3158
1	1494	3159
1	1479	3160
1	1482	3161
1	1503	3162
1	1536	3163
1	1577	3164
1	1618	3165
1	1670	3166
1	1735	3167
1	1791	3168
1	1845	3169
1	1883	3170
1	1901	3171
1	1895	3172
1	1878	3173
1	1834	3174
1	1769	3175
1	1704	3176
1	1639	3177
1	1581	3178
1	1533	3179
1	1503	3180
1	1482	3181
1	1479	3182
1	1481	3183
1	1499	3184
1	1520	3185
1	1548	3186
1	1584	3187
1	1620	3188
1	1652	3189
1	1677	3190
1	1686	3191
1	1678	3192
1	1652	3193
1	1613	3194
1	1571	3195
1	1529	3196
1	1484	3197
1	1442	3198
1	1412	3199
1	1398	3200
1	1400	3201
1	1424	3202
1	1454	3203
1	1503	3204
1	1557	3205
1	1630	3206
1	1712	3207
1	1815	3208
1	1913	3209
1	2001	3210
1	2076	3211
1	2131	3212
1	2162	3213
1	2184	3214
1	2197	3215
1	2211	3216
1	2234	3217
1	2245	3218
1	2263	3219
1	2299	3220
1	2345	3221
1	2405	3222
1	2480	3223
1	2548	3224
1	2602	3225
1	2678	3226
1	2761	3227
1	2836	3228
1	2885	3229
1	2904	3230
1	2890	3231
1	2836	3232
1	2745	3233
1	2627	3234
1	2499	3235
1	2365	3236
1	2230	3237
1	2109	3238
1	2015	3239
1	1948	3240
1	1900	3241
1	1877	3242
1	1869	3243
1	1881	3244
1	1908	3245
1	1950	3246
1	2001	3247
1	2059	3248
1	2101	3249
1	2120	3250
1	2115	3251
1	2083	3252
1	2028	3253
1	1958	3254
1	1870	3255
1	1777	3256
1	1686	3257
1	1598	3258
1	1531	3259
1	1495	3260
1	1481	3261
1	1494	3262
1	1516	3263
1	1554	3264
1	1598	3265
1	1657	3266
1	1726	3267
1	1802	3268
1	1878	3269
1	1940	3270
1	1980	3271
1	2000	3272
1	1992	3273
1	1966	3274
1	1922	3275
1	1870	3276
1	1818	3277
1	1760	3278
1	1712	3279
1	1677	3280
1	1657	3281
1	1655	3282
1	1662	3283
1	1686	3284
1	1713	3285
1	1754	3286
1	1811	3287
1	1863	3288
1	1922	3289
1	1971	3290
1	2005	3291
1	2026	3292
1	2021	3293
1	1991	3294
1	1949	3295
1	1907	3296
1	1861	3297
1	1817	3298
1	1774	3299
1	1751	3300
1	1748	3301
1	1760	3302
1	1769	3303
1	1790	3304
1	1814	3305
1	1841	3306
1	1881	3307
1	1924	3308
1	1970	3309
1	2003	3310
1	2026	3311
1	2029	3312
1	2012	3313
1	1974	3314
1	1925	3315
1	1877	3316
1	1829	3317
1	1777	3318
1	1747	3319
1	1738	3320
1	1742	3321
1	1764	3322
1	1793	3323
1	1828	3324
1	1855	3325
1	1906	3326
1	1957	3327
1	2005	3328
1	2058	3329
1	2102	3330
1	2131	3331
1	2140	3332
1	2131	3333
1	2099	3334
1	2052	3335
1	2001	3336
1	1948	3337
1	1896	3338
1	1855	3339
1	1824	3340
1	1817	3341
1	1814	3342
1	1824	3343
1	1845	3344
1	1877	3345
1	1922	3346
1	1981	3347
1	2040	3348
1	2102	3349
1	2147	3350
1	2170	3351
1	2165	3352
1	2152	3353
1	2111	3354
1	2068	3355
1	2023	3356
1	1974	3357
1	1934	3358
1	1896	3359
1	1870	3360
1	1857	3361
1	1854	3362
1	1856	3363
1	1872	3364
1	1899	3365
1	1948	3366
1	2006	3367
1	2069	3368
1	2127	3369
1	2166	3370
1	2187	3371
1	2188	3372
1	2174	3373
1	2144	3374
1	2105	3375
1	2063	3376
1	2024	3377
1	1979	3378
1	1949	3379
1	1929	3380
1	1926	3381
1	1933	3382
1	1959	3383
1	1987	3384
1	2022	3385
1	2068	3386
1	2120	3387
1	2176	3388
1	2232	3389
1	2273	3390
1	2296	3391
1	2298	3392
1	2276	3393
1	2242	3394
1	2196	3395
1	2156	3396
1	2115	3397
1	2089	3398
1	2063	3399
1	2043	3400
1	2037	3401
1	2041	3402
1	2058	3403
1	2084	3404
1	2122	3405
1	2168	3406
1	2222	3407
1	2273	3408
1	2319	3409
1	2354	3410
1	2376	3411
1	2368	3412
1	2355	3413
1	2320	3414
1	2277	3415
1	2236	3416
1	2184	3417
1	2145	3418
1	2112	3419
1	2084	3420
1	2067	3421
1	2058	3422
1	2052	3423
1	2066	3424
1	2080	3425
1	2114	3426
1	2155	3427
1	2209	3428
1	2248	3429
1	2286	3430
1	2302	3431
1	2300	3432
1	2278	3433
1	2245	3434
1	2196	3435
1	2153	3436
1	2104	3437
1	2054	3438
1	2017	3439
1	1989	3440
1	1976	3441
1	1978	3442
1	1998	3443
1	2025	3444
1	2066	3445
1	2115	3446
1	2171	3447
1	2237	3448
1	2296	3449
1	2340	3450
1	2367	3451
1	2369	3452
1	2344	3453
1	2304	3454
1	2253	3455
1	2196	3456
1	2140	3457
1	2104	3458
1	2071	3459
1	2052	3460
1	2043	3461
1	2045	3462
1	2054	3463
1	2073	3464
1	2102	3465
1	2140	3466
1	2191	3467
1	2247	3468
1	2300	3469
1	2340	3470
1	2364	3471
1	2372	3472
1	2354	3473
1	2307	3474
1	2243	3475
1	2171	3476
1	2106	3477
1	2050	3478
1	2003	3479
1	1974	3480
1	1953	3481
1	1945	3482
1	1944	3483
1	1962	3484
1	2000	3485
1	2052	3486
1	2107	3487
1	2178	3488
1	2236	3489
1	2273	3490
1	2294	3491
1	2297	3492
1	2281	3493
1	2251	3494
1	2201	3495
1	2156	3496
1	2109	3497
1	2062	3498
1	2031	3499
1	2017	3500
1	2020	3501
1	2031	3502
1	2061	3503
1	2092	3504
1	2124	3505
1	2166	3506
1	2215	3507
1	2275	3508
1	2320	3509
1	2353	3510
1	2366	3511
1	2351	3512
1	2311	3513
1	2258	3514
1	2192	3515
1	2137	3516
1	2093	3517
1	2050	3518
1	2019	3519
1	2000	3520
1	1989	3521
1	1995	3522
1	2009	3523
1	2029	3524
1	2055	3525
1	2109	3526
1	2176	3527
1	2248	3528
1	2304	3529
1	2346	3530
1	2367	3531
1	2366	3532
1	2341	3533
1	2294	3534
1	2236	3535
1	2183	3536
1	2124	3537
1	2074	3538
1	2029	3539
1	2001	3540
1	1992	3541
1	2001	3542
1	2019	3543
1	2052	3544
1	2093	3545
1	2150	3546
1	2210	3547
1	2284	3548
1	2336	3549
1	2376	3550
1	2397	3551
1	2396	3552
1	2371	3553
1	2322	3554
1	2258	3555
1	2184	3556
1	2119	3557
1	2057	3558
1	2011	3559
1	1978	3560
1	1967	3561
1	1975	3562
1	1999	3563
1	2032	3564
1	2079	3565
1	2139	3566
1	2214	3567
1	2289	3568
1	2348	3569
1	2381	3570
1	2386	3571
1	2366	3572
1	2314	3573
1	2249	3574
1	2174	3575
1	2109	3576
1	2052	3577
1	2004	3578
1	1971	3579
1	2015	3600
1	1999	3601
1	2000	3602
1	2010	3603
1	2030	3604
1	2065	3605
1	2112	3606
1	2173	3607
1	2255	3608
1	2326	3609
1	2381	3610
1	2415	3611
1	2419	3612
1	2397	3613
1	2356	3614
1	2300	3615
1	2237	3616
1	2175	3617
1	2117	3618
1	2079	3619
1	1956	3600
1	1953	3601
1	1970	3602
1	1994	3603
1	2037	3604
1	2091	3605
1	2157	3606
1	2235	3607
1	2309	3608
1	2369	3609
1	2417	3610
1	2440	3611
1	2434	3612
1	2417	3613
1	2367	3614
1	2304	3615
1	2236	3616
1	2163	3617
1	2102	3618
1	2052	3619
1	2052	3620
1	2048	3621
1	2055	3622
1	2066	3623
1	2078	3624
1	2094	3625
1	2135	3626
1	2178	3627
1	2240	3628
1	2289	3629
1	2326	3630
1	2341	3631
1	2332	3632
1	2297	3633
1	2247	3634
1	2186	3635
1	2143	3636
1	2101	3637
1	2066	3638
1	2038	3639
1	2021	3640
1	2025	3641
1	2039	3642
1	2065	3643
1	2102	3644
1	2141	3645
1	2184	3646
1	2243	3647
1	2290	3648
1	2332	3649
1	2360	3650
1	2369	3651
1	2354	3652
1	2332	3653
1	2286	3654
1	2228	3655
1	2169	3656
1	2109	3657
1	2052	3658
1	2009	3659
1	1974	3660
1	1958	3661
1	1955	3662
1	1960	3663
1	1985	3664
1	2013	3665
1	2054	3666
1	2105	3667
1	2148	3668
1	2188	3669
1	2222	3670
1	2246	3671
1	2243	3672
1	2222	3673
1	2192	3674
1	2148	3675
1	2100	3676
1	2052	3677
1	1997	3678
1	1951	3679
1	1921	3680
1	1900	3681
1	1900	3682
1	1929	3683
1	1962	3684
1	2006	3685
1	2061	3686
1	2127	3687
1	2191	3688
1	2248	3689
1	2283	3690
1	2294	3691
1	2285	3692
1	2246	3693
1	2188	3694
1	2124	3695
1	2057	3696
1	1976	3697
1	1908	3698
1	1846	3699
1	1796	3700
1	1775	3701
1	1775	3702
1	1791	3703
1	1827	3704
1	1869	3705
1	1922	3706
1	1983	3707
1	2047	3708
1	2109	3709
1	2165	3710
1	2203	3711
1	2214	3712
1	2211	3713
1	2179	3714
1	2131	3715
1	2078	3716
1	2017	3717
1	1960	3718
1	1909	3719
1	1870	3720
1	1849	3721
1	1845	3722
1	1854	3723
1	1880	3724
1	1916	3725
1	1961	3726
1	2008	3727
1	2066	3728
1	2105	3729
1	2125	3730
1	2138	3731
1	2131	3732
1	2105	3733
1	2061	3734
1	2007	3735
1	1948	3736
1	1881	3737
1	1817	3738
1	1765	3739
1	1764	3780
1	1743	3781
1	1738	3782
1	1743	3783
1	1762	3784
1	1788	3785
1	1827	3786
1	1872	3787
1	1919	3788
1	1970	3789
1	2013	3790
1	2040	3791
1	2047	3792
1	2025	3793
1	1985	3794
1	1932	3795
1	1882	3796
1	1836	3797
1	1793	3798
1	1763	3799
1	1738	3800
1	1723	3801
1	1715	3802
1	1712	3803
1	1719	3804
1	1738	3805
1	1770	3806
1	1827	3807
1	1881	3808
1	1935	3809
1	1976	3810
1	1998	3811
1	1991	3812
1	1971	3813
1	1931	3814
1	1883	3815
1	1839	3816
1	1790	3817
1	1744	3818
1	1712	3819
1	1735	3760
1	1718	3761
1	1717	3762
1	1729	3763
1	1751	3764
1	1783	3765
1	1827	3766
1	1883	3767
1	1940	3768
1	1998	3769
1	2044	3770
1	2077	3771
1	2089	3772
1	2070	3773
1	2039	3774
1	1994	3775
1	1945	3776
1	1886	3777
1	1839	3778
1	1792	3779
1	1689	3800
1	1686	3801
1	1690	3802
1	1713	3803
1	1741	3804
1	1778	3805
1	1827	3806
1	1878	3807
1	1933	3808
1	1981	3809
1	2016	3810
1	2031	3811
1	2025	3812
1	1987	3813
1	1931	3814
1	1860	3815
1	1790	3816
1	1716	3817
1	1650	3818
1	1597	3819
1	1560	3820
1	1548	3821
1	1553	3822
1	1570	3823
1	1603	3824
1	1629	3825
1	1674	3826
1	1729	3827
1	1787	3828
1	1842	3829
1	1881	3830
1	1907	3831
1	1904	3832
1	1877	3833
1	1829	3834
1	1764	3835
1	1698	3836
1	1647	3837
1	1589	3838
1	1541	3839
1	1511	3840
1	1500	3841
1	1512	3842
1	1539	3843
1	1581	3844
1	1625	3845
1	1680	3846
1	1738	3847
1	1800	3848
1	1845	3849
1	1873	3850
1	1878	3851
1	1862	3852
1	1829	3853
1	1767	3854
1	1698	3855
1	1629	3856
1	1559	3857
1	1494	3858
1	1445	3859
1	1410	3860
1	1394	3861
1	1395	3862
1	1405	3863
1	1430	3864
1	1464	3865
1	1512	3866
1	1573	3867
1	1639	3868
1	1698	3869
1	1738	3870
1	1763	3871
1	1762	3872
1	1733	3873
1	1687	3874
1	1634	3875
1	1584	3876
1	1530	3877
1	1473	3878
1	1416	3879
1	1368	3880
1	1341	3881
1	1332	3882
1	1337	3883
1	1361	3884
1	1398	3885
1	1442	3886
1	1491	3887
1	1544	3888
1	1589	3889
1	1625	3890
1	1647	3891
1	1652	3892
1	1634	3893
1	1596	3894
1	1543	3895
1	1481	3896
1	1424	3897
1	1371	3898
1	1332	3899
1	1311	3900
1	1306	3901
1	1318	3902
1	1337	3903
1	1368	3904
1	1406	3905
1	1449	3906
1	1490	3907
1	1539	3908
1	1577	3909
1	1597	3910
1	1599	3911
1	1584	3912
1	1551	3913
1	1499	3914
1	1435	3915
1	1359	3916
1	1281	3917
1	1199	3918
1	1129	3919
1	1071	3920
1	1033	3921
1	1010	3922
1	1018	3923
1	1042	3924
1	1078	3925
1	1136	3926
1	1212	3927
1	1283	3928
1	1358	3929
1	1435	3930
1	1490	3931
1	1530	3932
1	1556	3933
1	1561	3934
1	1555	3935
1	1554	3936
1	1536	3937
1	1527	3938
1	1521	3939
1	1534	3940
1	1569	3941
1	1610	3942
1	1668	3943
1	1738	3944
1	1826	3945
1	1922	3946
1	2035	3947
1	2148	3948
1	2261	3949
1	2353	3950
1	2429	3951
1	2472	3952
1	2489	3953
1	2471	3954
1	2425	3955
1	2361	3956
1	2273	3957
1	2168	3958
1	2063	3959
1	1962	3960
1	1871	3961
1	1785	3962
1	1706	3963
1	1644	3964
1	1594	3965
1	1571	3966
1	1568	3967
1	1576	3968
1	1583	3969
1	1587	3970
1	1589	3971
1	1576	3972
1	1545	3973
1	1497	3974
1	1436	3975
1	1363	3976
1	1289	3977
1	1214	3978
1	1147	3979
1	1096	3980
1	1065	3981
1	1051	3982
1	1053	3983
1	1058	3984
1	1083	3985
1	1122	3986
1	1171	3987
1	1228	3988
1	1280	3989
1	1320	3990
1	1343	3991
1	1346	3992
1	1321	3993
1	1284	3994
1	1233	3995
1	1187	3996
1	1132	3997
1	1093	3998
1	1058	3999
1	1035	4000
1	1031	4001
1	1041	4002
1	1055	4003
1	1071	4004
1	1098	4005
1	1136	4006
1	1185	4006
1	1228	4008
1	1267	4009
1	1293	4010
1	1307	4011
1	1296	4012
1	1278	4013
1	1235	4014
1	1177	4014
1	1119	4016
1	1059	4017
1	1010	4018
1	965	4019
1	941	4020
1	937	4021
1	952	4022
1	977	4022
1	1005	4024
1	1032	4025
1	1073	4026
1	1112	4027
1	1160	4028
1	1193	4029
1	1226	4030
1	1240	4030
1	1238	4032
1	1224	4033
1	1188	4034
1	1140	4035
1	1089	4036
1	1044	4037
1	1007	4038
1	985	4038
1	972	4040
1	977	4041
1	979	4042
1	990	4043
1	1005	4044
1	1031	4045
1	1067	4046
1	1114	4046
1	1166	4048
1	1215	4049
1	1255	4050
1	1277	4051
1	1278	4052
1	1256	4053
1	1212	4054
1	1157	4054
1	1105	4056
1	1045	4057
1	1002	4058
1	952	4059
1	915	4060
1	898	4061
1	895	4062
1	901	4062
1	921	4064
1	954	4065
1	1018	4066
1	1095	4067
1	1170	4068
1	1237	4069
1	1283	4070
1	1314	4070
1	1319	4072
1	1307	4073
1	1275	4074
1	1229	4075
1	1175	4076
1	1117	4077
1	1065	4078
1	1021	4078
1	985	4080
1	963	4081
1	956	4082
1	965	4083
1	992	4084
1	1022	4085
1	1069	4086
1	1122	4086
1	1175	4088
1	1224	4089
1	1260	4090
1	1280	4091
1	1284	4092
1	1260	4093
1	1218	4094
1	1161	4094
1	1090	4096
1	1040	4097
1	990	4098
1	942	4099
1	909	4100
1	896	4101
1	890	4102
1	901	4103
1	932	4104
1	975	4105
1	1031	4106
1	1098	4107
1	1176	4108
1	1251	4109
1	1312	4110
1	1354	4111
1	1369	4112
1	1348	4113
1	1304	4114
1	1237	4115
1	1166	4116
1	1094	4117
1	1031	4118
1	985	4119
1	950	4120
1	935	4121
1	942	4122
1	972	4123
1	1013	4124
1	1058	4125
1	1115	4126
1	1184	4127
1	1245	4128
1	1304	4129
1	1345	4130
1	1371	4131
1	1367	4132
1	1334	4133
1	1281	4134
1	1214	4135
1	1149	4136
1	1084	4137
1	1034	4138
1	997	4139
1	971	4140
1	954	4141
1	954	4142
1	971	4143
1	995	4144
1	1022	4145
1	1068	4146
1	1114	4147
1	1175	4148
1	1225	4149
1	1260	4150
1	1279	4151
1	1272	4152
1	1242	4153
1	1191	4154
1	1136	4155
1	1081	4156
1	1024	4157
1	972	4158
1	927	4159
1	893	4160
1	875	4161
1	872	4162
1	879	4163
1	908	4164
1	951	4165
1	1006	4166
1	1068	4167
1	1130	4168
1	1180	4169
1	1212	4170
1	1215	4171
1	1193	4172
1	1148	4173
1	1095	4174
1	1033	4175
1	983	4176
1	927	4177
1	877	4178
1	837	4179
1	807	4180
1	790	4181
1	796	4182
1	815	4183
1	846	4184
1	882	4185
1	929	4186
1	993	4187
1	1048	4188
1	1097	4189
1	1136	4190
1	1157	4191
1	1151	4192
1	1125	4193
1	1074	4194
1	1016	4195
1	949	4196
1	882	4197
1	822	4198
1	774	4199
1	747	4200
1	743	4201
1	749	4202
1	769	4203
1	801	4204
1	846	4205
1	900	4206
1	954	4207
1	1016	4208
1	1058	4209
1	1091	4210
1	1110	4211
1	1111	4212
1	1093	4213
1	1057	4214
1	1005	4215
1	947	4216
1	887	4217
1	828	4218
1	779	4219
1	743	4220
1	726	4221
1	724	4222
1	735	4223
1	756	4224
1	780	4225
1	824	4226
1	873	4227
1	923	4228
1	963	4229
1	998	4230
1	1011	4231
1	1013	4232
1	996	4233
1	962	4234
1	926	4235
1	887	4236
1	848	4237
1	810	4238
1	791	4239
1	774	4240
1	782	4241
1	799	4242
1	825	4243
1	859	4244
1	892	4245
1	928	4246
1	977	4247
1	1009	4248
1	1037	4249
1	1055	4250
1	1057	4251
1	1036	4252
1	1005	4253
1	953	4254
1	893	4255
1	837	4256
1	783	4257
1	743	4258
1	715	4259
1	700	4260
1	701	4261
1	714	4262
1	733	4263
1	766	4264
1	809	4265
1	861	4266
1	925	4267
1	988	4268
1	1036	4269
1	1071	4270
1	1088	4271
1	1085	4272
1	1063	4273
1	1022	4274
1	977	4275
1	929	4276
1	883	4277
1	836	4278
1	794	4279
1	760	4280
1	738	4281
1	731	4282
1	738	4283
1	753	4284
1	774	4285
1	817	4286
1	874	4287
1	941	4288
1	1004	4289
1	1047	4290
1	1076	4291
1	1090	4292
1	1076	4293
1	1044	4294
1	998	4295
1	936	4296
1	879	4297
1	833	4298
1	793	4299
1	767	4300
1	755	4301
1	756	4302
1	769	4303
1	796	4304
1	824	4305
1	864	4306
1	913	4307
1	962	4308
1	1009	4309
1	1040	4310
1	1053	4311
1	1040	4312
1	1022	4313
1	990	4314
1	945	4315
1	900	4316
1	856	4317
1	820	4318
1	792	4319
1	771	4320
1	769	4321
1	778	4322
1	796	4323
1	819	4324
1	848	4325
1	888	4326
1	937	4327
1	998	4328
1	1044	4329
1	1076	4330
1	1087	4331
1	1079	4332
1	1050	4333
1	1009	4334
1	954	4335
1	900	4336
1	847	4337
1	793	4338
1	743	4339
1	715	4340
1	704	4341
1	708	4342
1	729	4343
1	766	4344
1	816	4345
1	878	4346
1	950	4347
1	1020	4348
1	1076	4349
1	1118	4350
1	1147	4351
1	1148	4352
1	1123	4353
1	1084	4354
1	1034	4355
1	981	4356
1	927	4357
1	885	4358
1	846	4359
1	820	4360
1	808	4361
1	808	4362
1	816	4363
1	836	4364
1	870	4365
1	921	4366
1	985	4367
1	1044	4368
1	1095	4369
1	1132	4370
1	1152	4371
1	1155	4372
1	1137	4373
1	1101	4374
1	1049	4375
1	981	4376
1	909	4377
1	848	4378
1	801	4379
1	770	4380
1	761	4381
1	771	4382
1	806	4383
1	851	4384
1	908	4385
1	972	4386
1	1031	4387
1	1087	4388
1	1127	4389
1	1150	4390
1	1154	4391
1	1136	4392
1	1103	4393
1	1050	4394
1	992	4395
1	927	4396
1	874	4397
1	822	4398
1	783	4399
1	767	4400
1	766	4401
1	783	4402
1	810	4403
1	842	4404
1	878	4405
1	927	4406
1	986	4407
1	1032	4408
1	1073	4409
1	1105	4410
1	1117	4411
1	1111	4412
1	1091	4413
1	1058	4414
1	1018	4415
1	970	4416
1	925	4417
1	887	4418
1	857	4419
1	880	4440
1	882	4441
1	901	4442
1	931	4443
1	973	4444
1	1016	4445
1	1065	4446
1	1121	4447
1	1176	4448
1	1218	4449
1	1247	4450
1	1262	4451
1	1256	4452
1	1233	4453
1	1194	4454
1	1147	4455
1	1095	4456
1	1042	4457
1	993	4458
1	954	4459
1	840	4420
1	835	4421
1	842	4422
1	854	4423
1	875	4424
1	906	4425
1	957	4426
1	1028	4427
1	1092	4428
1	1149	4429
1	1189	4430
1	1213	4431
1	1207	4432
1	1178	4433
1	1139	4434
1	1089	4435
1	1040	4436
1	991	4437
1	940	4438
1	900	4439
1	934	4460
1	929	4461
1	944	4462
1	957	4463
1	981	4464
1	1009	4465
1	1050	4466
1	1103	4467
1	1162	4468
1	1222	4469
1	1273	4470
1	1307	4471
1	1321	4472
1	1308	4473
1	1278	4474
1	1233	4475
1	1185	4476
1	1135	4477
1	1088	4478
1	1052	4479
1	1024	4500
1	1017	4501
1	1016	4502
1	1029	4503
1	1050	4504
1	1081	4505
1	1123	4506
1	1170	4507
1	1215	4508
1	1255	4509
1	1278	4510
1	1279	4511
1	1265	4512
1	1229	4513
1	1176	4514
1	1112	4515
1	1050	4516
1	993	4517
1	944	4518
1	914	4519
1	900	4500
1	903	4501
1	918	4502
1	941	4503
1	977	4504
1	1014	4505
1	1067	4506
1	1134	4507
1	1197	4508
1	1244	4509
1	1278	4510
1	1292	4511
1	1284	4512
1	1258	4513
1	1215	4514
1	1163	4515
1	1112	4516
1	1060	4517
1	1015	4518
1	978	4519
1	952	4540
1	947	4541
1	954	4542
1	978	4543
1	1004	4544
1	1031	4545
1	1084	4546
1	1134	4547
1	1193	4548
1	1242	4549
1	1277	4550
1	1287	4551
1	1278	4552
1	1248	4553
1	1212	4554
1	1167	4555
1	1125	4556
1	1084	4557
1	1038	4558
1	1018	4559
1	932	4560
1	924	4561
1	928	4562
1	951	4563
1	988	4564
1	1031	4565
1	1089	4566
1	1158	4567
1	1217	4568
1	1270	4569
1	1314	4570
1	1333	4571
1	1330	4572
1	1296	4573
1	1245	4574
1	1179	4575
1	1110	4576
1	1036	4577
1	960	4578
1	900	4579
1	999	4540
1	999	4541
1	1003	4542
1	1016	4543
1	1037	4544
1	1063	4545
1	1099	4546
1	1143	4547
1	1187	4548
1	1226	4549
1	1252	4550
1	1263	4551
1	1250	4552
1	1228	4553
1	1187	4554
1	1136	4555
1	1085	4556
1	1039	4557
1	997	4558
1	957	4559
1	851	4580
1	826	4581
1	821	4582
1	824	4583
1	845	4584
1	874	4585
1	927	4586
1	1000	4587
1	1071	4588
1	1142	4589
1	1202	4590
1	1243	4591
1	1267	4592
1	1265	4593
1	1243	4594
1	1219	4595
1	1194	4596
1	1179	4597
1	1168	4598
1	1169	4599
1	1188	4600
1	1226	4601
1	1283	4602
1	1350	4603
1	1431	4604
1	1517	4605
1	1620	4606
1	1737	4607
1	1852	4608
1	1963	4609
1	2067	4610
1	2152	4611
1	2208	4612
1	2243	4613
1	2238	4614
1	2218	4615
1	2192	4616
1	2152	4617
1	2101	4618
1	2032	4619
1	1959	4620
1	1881	4621
1	1816	4622
1	1746	4623
1	1700	4624
1	1662	4625
1	1645	4626
1	1639	4627
1	1651	4628
1	1647	4629
1	1647	4630
1	1633	4631
1	1594	4632
1	1546	4633
1	1481	4634
1	1409	4635
1	1328	4636
1	1256	4637
1	1193	4638
1	1141	4639
1	1106	4640
1	1081	4641
1	1066	4642
1	1058	4643
1	1071	4644
1	1092	4645
1	1135	4646
1	1183	4647
1	1229	4648
1	1269	4649
1	1298	4650
1	1319	4651
1	1322	4652
1	1299	4653
1	1264	4654
1	1212	4655
1	1157	4656
1	1103	4657
1	1066	4658
1	1035	4659
1	1031	4660
1	1043	4661
1	1071	4662
1	1111	4663
1	1157	4664
1	1202	4665
1	1254	4666
1	1318	4667
1	1372	4668
1	1427	4669
1	1469	4670
1	1490	4671
1	1495	4672
1	1474	4673
1	1428	4674
1	1367	4675
1	1302	4676
1	1241	4677
1	1189	4678
1	1151	4679
1	1121	4680
1	1102	4681
1	1098	4682
1	1103	4683
1	1121	4684
1	1155	4685
1	1207	4686
1	1273	4687
1	1348	4688
1	1413	4689
1	1452	4690
1	1473	4691
1	1468	4692
1	1447	4693
1	1408	4694
1	1356	4695
1	1308	4696
1	1259	4697
1	1206	4698
1	1170	4699
1	1150	4700
1	1145	4701
1	1153	4702
1	1175	4703
1	1198	4704
1	1231	4705
1	1276	4706
1	1332	4707
1	1397	4708
1	1449	4709
1	1485	4710
1	1503	4711
1	1503	4712
1	1481	4713
1	1449	4714
1	1407	4715
1	1356	4716
1	1310	4717
1	1261	4718
1	1215	4719
1	1185	4720
1	1166	4721
1	1170	4722
1	1190	4723
1	1227	4724
1	1259	4725
1	1312	4726
1	1376	4727
1	1450	4728
1	1517	4729
1	1563	4730
1	1589	4731
1	1592	4732
1	1570	4733
1	1529	4734
1	1476	4735
1	1423	4736
1	1367	4737
1	1319	4738
1	1280	4739
1	1249	4740
1	1236	4741
1	1240	4742
1	1254	4743
1	1282	4744
1	1319	4745
1	1370	4746
1	1436	4747
1	1503	4748
1	1563	4749
1	1612	4750
1	1644	4751
1	1656	4752
1	1647	4753
1	1621	4754
1	1579	4755
1	1534	4756
1	1488	4757
1	1441	4758
1	1402	4759
1	1372	4760
1	1358	4761
1	1368	4762
1	1381	4763
1	1407	4764
1	1438	4765
1	1482	4766
1	1535	4767
1	1587	4768
1	1634	4769
1	1663	4770
1	1677	4771
1	1672	4772
1	1634	4773
1	1585	4774
1	1529	4775
1	1476	4776
1	1434	4777
1	1396	4778
1	1367	4779
1	1350	4780
1	1354	4781
1	1372	4782
1	1400	4783
1	1438	4784
1	1482	4785
1	1535	4786
1	1594	4787
1	1647	4788
1	1698	4789
1	1729	4790
1	1741	4791
1	1736	4792
1	1715	4793
1	1674	4794
1	1620	4795
1	1562	4796
1	1508	4797
1	1465	4798
1	1428	4799
1	1405	4800
1	1393	4801
1	1393	4802
1	1398	4803
1	1420	4804
1	1450	4805
1	1492	4806
1	1542	4807
1	1597	4808
1	1643	4809
1	1682	4810
1	1701	4811
1	1706	4812
1	1692	4813
1	1666	4814
1	1634	4815
1	1598	4816
1	1556	4817
1	1512	4818
1	1481	4819
1	1458	4820
1	1448	4821
1	1450	4822
1	1453	4823
1	1467	4824
1	1487	4825
1	1530	4826
1	1572	4827
1	1618	4828
1	1652	4829
1	1677	4830
1	1686	4831
1	1674	4832
1	1644	4833
1	1604	4834
1	1555	4835
1	1507	4836
1	1458	4837
1	1412	4838
1	1372	4839
1	1341	4840
1	1328	4841
1	1330	4842
1	1354	4843
1	1402	4844
1	1464	4845
1	1533	4846
1	1615	4847
1	1685	4848
1	1742	4849
1	1776	4850
1	1782	4851
1	1756	4852
1	1713	4853
1	1649	4854
1	1577	4855
1	1503	4856
1	1438	4857
1	1376	4858
1	1332	4859
1	1302	4860
1	1293	4861
1	1296	4862
1	1315	4863
1	1346	4864
1	1396	4865
1	1450	4866
1	1525	4867
1	1587	4868
1	1645	4869
1	1687	4870
1	1710	4871
1	1701	4872
1	1665	4873
1	1606	4874
1	1531	4875
1	1464	4876
1	1397	4877
1	1331	4878
1	1286	4879
1	1368	4900
1	1364	4901
1	1373	4902
1	1402	4903
1	1437	4904
1	1477	4905
1	1526	4906
1	1580	4907
1	1631	4908
1	1680	4909
1	1715	4910
1	1734	4911
1	1733	4912
1	1699	4913
1	1644	4914
1	1581	4915
1	1528	4916
1	1473	4917
1	1427	4918
1	1395	4919
1	1265	4880
1	1266	4881
1	1296	4882
1	1337	4883
1	1384	4884
1	1438	4885
1	1499	4886
1	1559	4887
1	1616	4888
1	1665	4889
1	1700	4890
1	1715	4891
1	1710	4892
1	1679	4893
1	1634	4894
1	1579	4895
1	1518	4896
1	1468	4897
1	1423	4898
1	1391	4899
1	1368	4920
1	1359	4921
1	1364	4922
1	1372	4923
1	1400	4924
1	1437	4925
1	1490	4926
1	1554	4927
1	1621	4928
1	1670	4929
1	1713	4930
1	1726	4931
1	1711	4932
1	1685	4933
1	1638	4934
1	1581	4935
1	1527	4936
1	1473	4937
1	1433	4938
1	1404	4939
1	1393	4940
1	1384	4941
1	1395	4942
1	1413	4943
1	1440	4944
1	1476	4945
1	1529	4946
1	1581	4947
1	1634	4948
1	1682	4949
1	1713	4950
1	1736	4951
1	1739	4952
1	1721	4953
1	1690	4954
1	1647	4955
1	1598	4956
1	1542	4957
1	1497	4958
1	1452	4959
1	1465	4980
1	1465	4981
1	1468	4982
1	1481	4983
1	1503	4984
1	1539	4985
1	1591	4986
1	1651	4987
1	1718	4988
1	1768	4989
1	1808	4990
1	1818	4991
1	1802	4992
1	1765	4993
1	1722	4994
1	1673	4995
1	1629	4996
1	1584	4997
1	1542	4998
1	1512	4999
1	1490	5000
1	1484	5001
1	1494	5002
1	1521	5003
1	1544	5004
1	1579	5005
1	1621	5006
1	1675	5007
1	1733	5008
1	1778	5009
1	1814	5010
1	1826	5011
1	1814	5012
1	1766	5013
1	1712	5014
1	1647	5015
1	1585	5016
1	1535	5017
1	1494	5018
1	1472	5019
1	1424	4960
1	1409	4961
1	1406	4962
1	1424	4963
1	1452	4964
1	1499	4965
1	1557	4966
1	1631	4967
1	1690	4968
1	1743	4969
1	1780	4970
1	1792	4971
1	1789	4972
1	1760	4973
1	1713	4974
1	1660	4975
1	1607	4976
1	1553	4977
1	1507	4978
1	1478	4979
1	1466	5020
1	1477	5021
1	1502	5022
1	1529	5023
1	1563	5024
1	1597	5025
1	1644	5026
1	1696	5027
1	1744	5028
1	1782	5029
1	1814	5030
1	1824	5031
1	1816	5032
1	1782	5033
1	1733	5034
1	1675	5035
1	1625	5036
1	1572	5037
1	1528	5038
1	1490	5039
1	1464	5040
1	1454	5041
1	1459	5042
1	1476	5043
1	1507	5044
1	1554	5045
1	1610	5046
1	1685	5047
1	1762	5048
1	1827	5049
1	1869	5050
1	1884	5051
1	1878	5052
1	1850	5053
1	1795	5054
1	1735	5055
1	1671	5056
1	1610	5057
1	1555	5058
1	1513	5059
1	1489	5060
1	1482	5061
1	1495	5062
1	1515	5063
1	1543	5064
1	1581	5065
1	1638	5066
1	1702	5067
1	1764	5068
1	1821	5069
1	1856	5070
1	1880	5071
1	1883	5072
1	1863	5073
1	1827	5074
1	1770	5075
1	1711	5076
1	1657	5077
1	1607	5078
1	1572	5079
1	1554	5080
1	1553	5081
1	1557	5082
1	1581	5083
1	1607	5084
1	1638	5085
1	1684	5086
1	1727	5087
1	1770	5088
1	1802	5089
1	1819	5090
1	1819	5091
1	1817	5092
1	1791	5093
1	1759	5094
1	1719	5095
1	1682	5096
1	1635	5097
1	1597	5098
1	1569	5099
1	1557	5100
1	1564	5101
1	1586	5102
1	1618	5103
1	1657	5104
1	1700	5105
1	1747	5106
1	1809	5107
1	1868	5108
1	1913	5109
1	1944	5110
1	1953	5111
1	1944	5112
1	1911	5113
1	1866	5114
1	1803	5115
1	1739	5116
1	1675	5117
1	1609	5118
1	1564	5119
1	1530	5120
1	1515	5121
1	1520	5122
1	1536	5123
1	1558	5124
1	1587	5125
1	1639	5126
1	1691	5127
1	1759	5128
1	1826	5129
1	1878	5130
1	1909	5131
1	1920	5132
1	1906	5133
1	1870	5134
1	1827	5135
1	1778	5136
1	1737	5137
1	1708	5138
1	1690	5139
1	1686	5140
1	1700	5141
1	1715	5142
1	1740	5143
1	1773	5144
1	1813	5145
1	1856	5146
1	1904	5147
1	1947	5148
1	1985	5149
1	2013	5150
1	2024	5151
1	2019	5152
1	2003	5153
1	1966	5154
1	1922	5155
1	1870	5156
1	1820	5157
1	1775	5158
1	1741	5159
1	1716	5160
1	1701	5161
1	1701	5162
1	1710	5163
1	1729	5164
1	1759	5165
1	1800	5166
1	1862	5167
1	1918	5168
1	1967	5169
1	2002	5170
1	2019	5171
1	2012	5172
1	1986	5173
1	1945	5174
1	1895	5175
1	1843	5176
1	1786	5177
1	1734	5178
1	1696	5179
1	1540	5200
1	1528	5201
1	1537	5202
1	1572	5203
1	1622	5204
1	1679	5205
1	1738	5206
1	1808	5207
1	1868	5208
1	1926	5209
1	1974	5210
1	2000	5211
1	1996	5212
1	1972	5213
1	1922	5214
1	1864	5215
1	1802	5216
1	1747	5217
1	1699	5218
1	1660	5219
1	1672	5180
1	1671	5181
1	1684	5182
1	1698	5183
1	1724	5184
1	1755	5185
1	1800	5186
1	1856	5187
1	1908	5188
1	1950	5189
1	1975	5190
1	1976	5191
1	1958	5192
1	1908	5193
1	1854	5194
1	1790	5195
1	1724	5196
1	1670	5197
1	1618	5198
1	1573	5199
1	1635	5220
1	1628	5221
1	1633	5222
1	1643	5223
1	1671	5224
1	1708	5225
1	1764	5226
1	1834	5227
1	1903	5228
1	1952	5229
1	2000	5230
1	2014	5231
1	2008	5232
1	1977	5233
1	1933	5234
1	1881	5235
1	1829	5236
1	1770	5237
1	1716	5238
1	1676	5239
1	1647	5240
1	1633	5241
1	1625	5242
1	1633	5243
1	1647	5244
1	1681	5245
1	1724	5246
1	1777	5247
1	1837	5248
1	1885	5249
1	1922	5250
1	1944	5251
1	1942	5252
1	1908	5253
1	1862	5254
1	1801	5255
1	1737	5256
1	1668	5257
1	1611	5258
1	1557	5259
1	1516	5260
1	1485	5261
1	1466	5262
1	1464	5263
1	1476	5264
1	1499	5265
1	1542	5266
1	1600	5267
1	1662	5268
1	1733	5269
1	1794	5270
1	1854	5271
1	1895	5272
1	1913	5273
1	1910	5274
1	1895	5275
1	1878	5276
1	1864	5277
1	1856	5278
1	1860	5279
1	1881	5280
1	1920	5281
1	1964	5282
1	2026	5283
1	2096	5284
1	2179	5285
1	2284	5286
1	2412	5287
1	2522	5288
1	2623	5289
1	2707	5290
1	2777	5291
1	2828	5292
1	2853	5293
1	2857	5294
1	2845	5295
1	2812	5296
1	2764	5297
1	2694	5298
1	2620	5299
1	2535	5300
1	2458	5301
1	2372	5302
1	2301	5303
1	2233	5304
1	2174	5305
1	2138	5306
1	2119	5307
1	2117	5308
1	2118	5309
1	2117	5310
1	2106	5311
1	2079	5312
1	2029	5313
1	1974	5314
1	1919	5315
1	1861	5316
1	1817	5317
1	1768	5318
1	1735	5319
1	1708	5320
1	1688	5321
1	1677	5322
1	1677	5323
1	1686	5324
1	1699	5325
1	1725	5326
1	1764	5327
1	1808	5328
1	1849	5329
1	1888	5330
1	1922	5331
1	1931	5332
1	1921	5333
1	1886	5334
1	1839	5335
1	1786	5336
1	1737	5337
1	1694	5338
1	1660	5339
1	1636	5340
1	1634	5341
1	1646	5342
1	1662	5343
1	1693	5344
1	1728	5345
1	1774	5346
1	1831	5347
1	1886	5348
1	1923	5349
1	1948	5350
1	1960	5351
1	1961	5352
1	1948	5353
1	1924	5354
1	1896	5355
1	1862	5356
1	1827	5357
1	1780	5358
1	1749	5359
1	1726	5360
1	1714	5361
1	1728	5362
1	1743	5363
1	1765	5364
1	1792	5365
1	1834	5366
1	1879	5367
1	1925	5368
1	1970	5369
1	1996	5370
1	2000	5371
1	1984	5372
1	1942	5373
1	1888	5374
1	1826	5375
1	1764	5376
1	1717	5377
1	1687	5378
1	1679	5379
1	1691	5380
1	1723	5381
1	1763	5382
1	1818	5383
1	1869	5384
1	1922	5385
1	1974	5386
1	2028	5387
1	2083	5388
1	2126	5389
1	2156	5390
1	2163	5391
1	2157	5392
1	2115	5393
1	2052	5394
1	1980	5395
1	1909	5396
1	1842	5397
1	1777	5398
1	1736	5399
1	1712	5400
1	1703	5401
1	1712	5402
1	1731	5403
1	1760	5404
1	1799	5405
1	1849	5406
1	1901	5407
1	1957	5408
1	2000	5409
1	2032	5410
1	2052	5411
1	2052	5412
1	2034	5413
1	1998	5414
1	1948	5415
1	1896	5416
1	1850	5417
1	1801	5418
1	1769	5419
1	1751	5420
1	1751	5421
1	1767	5422
1	1792	5423
1	1833	5424
1	1870	5425
1	1921	5426
1	1955	5427
1	2003	5428
1	2048	5429
1	2078	5430
1	2091	5431
1	2083	5432
1	2058	5433
1	2014	5434
1	1961	5435
1	1906	5436
1	1854	5437
1	1814	5438
1	1785	5439
1	1776	5440
1	1788	5441
1	1822	5442
1	1855	5443
1	1894	5444
1	1935	5445
1	1981	5446
1	2026	5447
1	2066	5448
1	2097	5449
1	2118	5450
1	2121	5451
1	2107	5452
1	2081	5453
1	2037	5454
1	1986	5455
1	1940	5456
1	1898	5457
1	1875	5458
1	1870	5459
1	1879	5460
1	1897	5461
1	1927	5462
1	1962	5463
1	2010	5464
1	2058	5465
1	2109	5466
1	2170	5467
1	2219	5468
1	2262	5469
1	2284	5470
1	2281	5471
1	2256	5472
1	2201	5473
1	2131	5474
1	2054	5475
1	1978	5476
1	1910	5477
1	1846	5478
1	1801	5479
1	1773	5480
1	1764	5481
1	1779	5482
1	1816	5483
1	1862	5484
1	1923	5485
1	1995	5486
1	2077	5487
1	2155	5488
1	2219	5489
1	2273	5490
1	2296	5491
1	2290	5492
1	2254	5493
1	2192	5494
1	2122	5495
1	2052	5496
1	1990	5497
1	1932	5498
1	1888	5499
1	1856	5500
1	1842	5501
1	1836	5502
1	1844	5503
1	1861	5504
1	1893	5505
1	1932	5506
1	1979	5507
1	2018	5508
1	2055	5509
1	2077	5510
1	2079	5511
1	2063	5512
1	2040	5513
1	2000	5514
1	1955	5515
1	1914	5516
1	1871	5517
1	1843	5518
1	1826	5519
1	1821	5520
1	1832	5521
1	1853	5522
1	1865	5523
1	1889	5524
1	1920	5525
1	1961	5526
1	2005	5527
1	2055	5528
1	2084	5529
1	2117	5530
1	2123	5531
1	2111	5532
1	2079	5533
1	2030	5534
1	1971	5535
1	1905	5536
1	1836	5537
1	1765	5538
1	1721	5539
1	1692	5540
1	1685	5541
1	1688	5542
1	1723	5543
1	1760	5544
1	1817	5545
1	1869	5546
1	1927	5547
1	1985	5548
1	2026	5549
1	2052	5550
1	2063	5551
1	2053	5552
1	2016	5553
1	1968	5554
1	1909	5555
1	1854	5556
1	1797	5557
1	1764	5558
1	1738	5559
1	1734	5560
1	1741	5561
1	1760	5562
1	1780	5563
1	1802	5564
1	1838	5565
1	1869	5566
1	1911	5567
1	1948	5568
1	1981	5569
1	2005	5570
1	2009	5571
1	2001	5572
1	1967	5573
1	1919	5574
1	1868	5575
1	1820	5576
1	1780	5577
1	1752	5578
1	1738	5579
1	1733	5580
1	1741	5581
1	1751	5582
1	1773	5583
1	1802	5584
1	1843	5585
1	1886	5586
1	1937	5587
1	1981	5588
1	2022	5589
1	2052	5590
1	2066	5591
1	2058	5592
1	2034	5593
1	1990	5594
1	1939	5595
1	1882	5596
1	1827	5597
1	1766	5598
1	1729	5599
1	1705	5600
1	1696	5601
1	1701	5602
1	1729	5603
1	1762	5604
1	1814	5605
1	1869	5606
1	1935	5607
1	2000	5608
1	2048	5609
1	2080	5610
1	2093	5611
1	2089	5612
1	2058	5613
1	2016	5614
1	1965	5615
1	1913	5616
1	1864	5617
1	1815	5618
1	1764	5619
1	1764	5640
1	1769	5641
1	1777	5642
1	1790	5643
1	1817	5644
1	1855	5645
1	1901	5646
1	1960	5647
1	2026	5648
1	2075	5649
1	2109	5650
1	2129	5651
1	2124	5652
1	2097	5653
1	2052	5654
1	1998	5655
1	1936	5656
1	1877	5657
1	1817	5658
1	1770	5659
1	1738	5620
1	1720	5621
1	1719	5622
1	1732	5623
1	1751	5624
1	1779	5625
1	1836	5626
1	1899	5627
1	1963	5628
1	2013	5629
1	2047	5630
1	2058	5631
1	2048	5632
1	2023	5633
1	1977	5634
1	1926	5635
1	1877	5636
1	1841	5637
1	1800	5638
1	1775	5639
1	1769	5700
1	1769	5701
1	1786	5702
1	1799	5703
1	1829	5704
1	1857	5705
1	1900	5706
1	1958	5707
1	2011	5708
1	2052	5709
1	2079	5710
1	2088	5711
1	2078	5712
1	2052	5713
1	2009	5714
1	1961	5715
1	1917	5716
1	1877	5717
1	1845	5718
1	1830	5719
1	1787	5680
1	1793	5681
1	1817	5682
1	1852	5683
1	1886	5684
1	1922	5685
1	1965	5686
1	2011	5687
1	2048	5688
1	2079	5689
1	2099	5690
1	2103	5691
1	2092	5692
1	2061	5693
1	2017	5694
1	1973	5695
1	1923	5696
1	1869	5697
1	1825	5698
1	1787	5699
1	1746	5660
1	1733	5661
1	1739	5662
1	1759	5663
1	1788	5664
1	1830	5665
1	1878	5666
1	1932	5667
1	1999	5668
1	2050	5669
1	2088	5670
1	2105	5671
1	2096	5672
1	2055	5673
1	2006	5674
1	1952	5675
1	1898	5676
1	1859	5677
1	1821	5678
1	1791	5679
1	1822	5720
1	1827	5721
1	1843	5722
1	1859	5723
1	1880	5724
1	1909	5725
1	1950	5726
1	2000	5727
1	2049	5728
1	2081	5729
1	2109	5730
1	2119	5731
1	2113	5732
1	2084	5733
1	2048	5734
1	1998	5735
1	1948	5736
1	1895	5737
1	1856	5738
1	1818	5739
1	1792	5740
1	1786	5741
1	1793	5742
1	1814	5743
1	1837	5744
1	1871	5745
1	1922	5746
1	1989	5747
1	2052	5748
1	2102	5749
1	2131	5750
1	2142	5751
1	2129	5752
1	2098	5753
1	2039	5754
1	1974	5755
1	1913	5756
1	1865	5757
1	1829	5758
1	1811	5759
1	1802	5760
1	1813	5761
1	1834	5762
1	1858	5763
1	1896	5764
1	1946	5765
1	1999	5766
1	2061	5767
1	2115	5768
1	2157	5769
1	2183	5770
1	2183	5771
1	2159	5772
1	2115	5773
1	2055	5774
1	1994	5775
1	1931	5776
1	1872	5777
1	1817	5778
1	1781	5779
1	1764	5780
1	1769	5781
1	1801	5782
1	1837	5783
1	1872	5784
1	1921	5785
1	1974	5786
1	2026	5787
1	2077	5788
1	2120	5789
1	2153	5790
1	2170	5791
1	2170	5792
1	2144	5793
1	2105	5794
1	2055	5795
1	2003	5796
1	1961	5797
1	1923	5798
1	1901	5799
1	1893	5800
1	1896	5801
1	1913	5802
1	1939	5803
1	1971	5804
1	2010	5805
1	2052	5806
1	2104	5807
1	2142	5808
1	2183	5809
1	2210	5810
1	2219	5811
1	2214	5812
1	2184	5813
1	2144	5814
1	2091	5815
1	2039	5816
1	1978	5817
1	1934	5818
1	1895	5819
1	1867	5820
1	1858	5821
1	1864	5822
1	1877	5823
1	1900	5824
1	1927	5825
1	1962	5826
1	2000	5827
1	2043	5828
1	2079	5829
1	2106	5830
1	2118	5831
1	2102	5832
1	2076	5833
1	2035	5834
1	1983	5835
1	1925	5836
1	1872	5837
1	1830	5838
1	1791	5839
1	1767	5840
1	1763	5841
1	1760	5842
1	1767	5843
1	1782	5844
1	1814	5845
1	1866	5846
1	1922	5847
1	1989	5848
1	2052	5849
1	2096	5850
1	2118	5851
1	2117	5852
1	2081	5853
1	2041	5854
1	1993	5855
1	1939	5856
1	1893	5857
1	1860	5858
1	1836	5859
1	1818	5860
1	1818	5861
1	1831	5862
1	1852	5863
1	1878	5864
1	1914	5865
1	1955	5866
1	2004	5867
1	2047	5868
1	2084	5869
1	2111	5870
1	2118	5871
1	2109	5872
1	2073	5873
1	2014	5874
1	1949	5875
1	1886	5876
1	1823	5877
1	1766	5878
1	1728	5879
1	1703	5880
1	1707	5881
1	1726	5882
1	1752	5883
1	1796	5884
1	1856	5885
1	1917	5886
1	1985	5887
1	2043	5888
1	2088	5889
1	2115	5890
1	2120	5891
1	2110	5892
1	2079	5893
1	2030	5894
1	1974	5895
1	1919	5896
1	1868	5897
1	1819	5898
1	1785	5899
1	1763	5900
1	1747	5901
1	1743	5902
1	1746	5903
1	1755	5904
1	1775	5905
1	1816	5906
1	1861	5907
1	1908	5908
1	1945	5909
1	1962	5910
1	1960	5911
1	1939	5912
1	1898	5913
1	1855	5914
1	1803	5915
1	1753	5916
1	1711	5917
1	1671	5918
1	1649	5919
1	2408	5940
1	2469	5941
1	2527	5942
1	2596	5943
1	2675	5944
1	2754	5945
1	2840	5946
1	2924	5947
1	2987	5948
1	3017	5949
1	3012	5950
1	2977	5951
1	2908	5952
1	2818	5953
1	2706	5954
1	2595	5955
1	2492	5956
1	2368	5957
1	2257	5958
1	2161	5959
1	1646	5920
1	1661	5921
1	1694	5922
1	1739	5923
1	1791	5924
1	1849	5925
1	1922	5926
1	2013	5927
1	2105	5928
1	2183	5929
1	2261	5930
1	2317	5931
1	2354	5932
1	2377	5933
1	2372	5934
1	2360	5935
1	2343	5936
1	2339	5937
1	2343	5938
1	2367	5939
1	2089	5960
1	2042	5961
1	2019	5962
1	2000	5963
1	1989	5964
1	1988	5965
1	2002	5966
1	2029	5967
1	2065	5968
1	2088	5969
1	2095	5970
1	2084	5971
1	2055	5972
1	2006	5973
1	1952	5974
1	1898	5975
1	1847	5976
1	1808	5977
1	1767	5978
1	1748	5979
1	1736	6000
1	1734	6001
1	1742	6002
1	1760	6003
1	1787	6004
1	1822	6005
1	1866	6006
1	1914	6007
1	1952	6008
1	1985	6009
1	2000	6010
1	1989	6011
1	1966	6012
1	1922	6013
1	1875	6014
1	1832	6015
1	1793	6016
1	1764	6017
1	1751	6018
1	1753	6019
1	1765	6000
1	1790	6001
1	1815	6002
1	1830	6003
1	1845	6004
1	1865	6005
1	1895	6006
1	1948	6007
1	1989	6008
1	2024	6009
1	2049	6010
1	2056	6011
1	2047	6012
1	2013	6013
1	1960	6014
1	1899	6015
1	1836	6016
1	1768	6017
1	1721	6018
1	1700	6019
1	1696	6020
1	1711	6021
1	1746	6022
1	1786	6023
1	1827	6024
1	1872	6025
1	1927	6026
1	1981	6027
1	2038	6028
1	2079	6029
1	2105	6030
1	2106	6031
1	2087	6032
1	2050	6033
1	1990	6034
1	1922	6035
1	1856	6036
1	1791	6037
1	1738	6038
1	1703	6039
1	1686	6040
1	1688	6041
1	1717	6042
1	1755	6043
1	1800	6044
1	1855	6045
1	1911	6046
1	1973	6047
1	2019	6048
1	2057	6049
1	2079	6050
1	2079	6051
1	2055	6052
1	2019	6053
1	1959	6054
1	1895	6055
1	1830	6056
1	1764	6057
1	1724	6058
1	1705	6059
1	1710	6060
1	1725	6061
1	1750	6062
1	1773	6063
1	1809	6064
1	1845	6065
1	1895	6066
1	1962	6067
1	2027	6068
1	2084	6069
1	2129	6070
1	2152	6071
1	2148	6072
1	2123	6073
1	2077	6074
1	2014	6075
1	1948	6076
1	1877	6077
1	1816	6078
1	1765	6079
1	1742	6080
1	1734	6081
1	1751	6082
1	1772	6083
1	1801	6084
1	1850	6085
1	1908	6086
1	1976	6087
1	2050	6088
1	2109	6089
1	2157	6090
1	2183	6091
1	2183	6092
1	2148	6093
1	2096	6094
1	2031	6095
1	1968	6096
1	1917	6097
1	1870	6098
1	1847	6099
1	1839	6100
1	1842	6101
1	1850	6102
1	1869	6103
1	1895	6104
1	1922	6105
1	1962	6106
1	2015	6107
1	2068	6108
1	2125	6109
1	2161	6110
1	2181	6111
1	2184	6112
1	2166	6113
1	2129	6114
1	2079	6115
1	2026	6116
1	1974	6117
1	1934	6118
1	1907	6119
1	1892	6120
1	1888	6121
1	1891	6122
1	1900	6123
1	1924	6124
1	1957	6125
1	1998	6126
1	2048	6127
1	2105	6128
1	2152	6129
1	2186	6130
1	2201	6131
1	2192	6132
1	2170	6133
1	2124	6134
1	2068	6135
1	2008	6136
1	1948	6137
1	1897	6138
1	1862	6139
1	1843	6140
1	1839	6141
1	1843	6142
1	1857	6143
1	1870	6144
1	1895	6145
1	1948	6146
1	2002	6147
1	2056	6148
1	2101	6149
1	2132	6150
1	2144	6151
1	2131	6152
1	2089	6153
1	2039	6154
1	1986	6155
1	1932	6156
1	1883	6157
1	1852	6158
1	1821	6159
1	1801	6160
1	1791	6161
1	1796	6162
1	1816	6163
1	1831	6164
1	1857	6165
1	1895	6166
1	1947	6167
1	1998	6168
1	2048	6169
1	2084	6170
1	2105	6171
1	2106	6172
1	2076	6173
1	2017	6174
1	1949	6175
1	1872	6176
1	1799	6177
1	1739	6178
1	1697	6179
1	1675	6180
1	1678	6181
1	1697	6182
1	1722	6183
1	1752	6184
1	1791	6185
1	1843	6186
1	1901	6187
1	1956	6188
1	2006	6189
1	2050	6190
1	2070	6191
1	2067	6192
1	2043	6193
1	2000	6194
1	1948	6195
1	1894	6196
1	1837	6197
1	1779	6198
1	1742	6199
1	1721	6200
1	1717	6201
1	1737	6202
1	1756	6203
1	1782	6204
1	1818	6205
1	1861	6206
1	1908	6207
1	1958	6208
1	2000	6209
1	2031	6210
1	2039	6211
1	2025	6212
1	1976	6213
1	1914	6214
1	1848	6215
1	1777	6216
1	1721	6217
1	1674	6218
1	1636	6219
1	1612	6220
1	1607	6221
1	1618	6222
1	1643	6223
1	1671	6224
1	1707	6225
1	1754	6226
1	1821	6227
1	1888	6228
1	1946	6229
1	1988	6230
1	2004	6231
1	1994	6232
1	1961	6233
1	1911	6234
1	1857	6235
1	1796	6236
1	1750	6237
1	1701	6238
1	1660	6239
1	1634	6240
1	1626	6241
1	1634	6242
1	1659	6243
1	1692	6244
1	1739	6245
1	1798	6246
1	1870	6247
1	1945	6248
1	2001	6249
1	2039	6250
1	2055	6251
1	2050	6252
1	2014	6253
1	1961	6254
1	1900	6255
1	1841	6256
1	1779	6257
1	1724	6258
1	1687	6259
1	1660	6280
1	1655	6281
1	1661	6282
1	1682	6283
1	1709	6284
1	1739	6285
1	1782	6286
1	1842	6287
1	1890	6288
1	1935	6289
1	1971	6290
1	1988	6291
1	1989	6292
1	1958	6293
1	1904	6294
1	1843	6295
1	1778	6296
1	1715	6297
1	1665	6298
1	1633	6299
1	1660	6260
1	1654	6261
1	1669	6262
1	1693	6263
1	1721	6264
1	1755	6265
1	1796	6266
1	1854	6267
1	1906	6268
1	1949	6269
1	1982	6270
1	2000	6271
1	2002	6272
1	1977	6273
1	1940	6274
1	1893	6275
1	1842	6276
1	1788	6277
1	1735	6278
1	1686	6279
1	1611	6300
1	1615	6301
1	1639	6302
1	1670	6303
1	1712	6304
1	1759	6305
1	1817	6306
1	1881	6307
1	1935	6308
1	1974	6309
1	2000	6310
1	2008	6311
1	1999	6312
1	1970	6313
1	1923	6314
1	1869	6315
1	1817	6316
1	1756	6317
1	1702	6318
1	1661	6319
1	1634	6320
1	1623	6321
1	1633	6322
1	1647	6323
1	1672	6324
1	1712	6325
1	1764	6326
1	1817	6327
1	1879	6328
1	1936	6329
1	1976	6330
1	1989	6331
1	1978	6332
1	1944	6333
1	1890	6334
1	1832	6335
1	1765	6336
1	1712	6337
1	1662	6338
1	1629	6339
1	1634	6360
1	1643	6361
1	1662	6362
1	1688	6363
1	1725	6364
1	1767	6365
1	1818	6366
1	1878	6367
1	1926	6368
1	1962	6369
1	1984	6370
1	1983	6371
1	1961	6372
1	1922	6373
1	1869	6374
1	1812	6375
1	1751	6376
1	1702	6377
1	1665	6378
1	1646	6379
1	1607	6340
1	1604	6341
1	1625	6342
1	1652	6343
1	1686	6344
1	1733	6345
1	1796	6346
1	1869	6347
1	1933	6348
1	1986	6349
1	2023	6350
1	2034	6351
1	2025	6352
1	1998	6353
1	1943	6354
1	1872	6355
1	1796	6356
1	1733	6357
1	1681	6358
1	1645	6359
1	1636	6380
1	1643	6381
1	1669	6382
1	1697	6383
1	1725	6384
1	1764	6385
1	1817	6386
1	1877	6387
1	1927	6388
1	1970	6389
1	1995	6390
1	1998	6391
1	1982	6392
1	1944	6393
1	1895	6394
1	1839	6395
1	1773	6396
1	1716	6397
1	1669	6398
1	1634	6399
1	1616	6400
1	1619	6401
1	1638	6402
1	1665	6403
1	1699	6404
1	1734	6405
1	1775	6406
1	1822	6407
1	1861	6408
1	1895	6409
1	1921	6410
1	1927	6411
1	1924	6412
1	1895	6413
1	1845	6414
1	1790	6415
1	1738	6416
1	1697	6417
1	1660	6418
1	1639	6419
1	1634	6420
1	1641	6421
1	1660	6422
1	1680	6423
1	1712	6424
1	1759	6425
1	1819	6426
1	1885	6427
1	1955	6428
1	2004	6429
1	2035	6430
1	2040	6431
1	2019	6432
1	1972	6433
1	1900	6434
1	1831	6435
1	1759	6436
1	1697	6437
1	1646	6438
1	1620	6439
1	1607	6440
1	1608	6441
1	1616	6442
1	1633	6443
1	1647	6444
1	1684	6445
1	1735	6446
1	1800	6447
1	1872	6448
1	1937	6449
1	1989	6450
1	2016	6451
1	2022	6452
1	1991	6453
1	1948	6454
1	1895	6455
1	1829	6456
1	1764	6457
1	1716	6458
1	1683	6459
1	1665	6460
1	1675	6461
1	1696	6462
1	1722	6463
1	1755	6464
1	1799	6465
1	1861	6466
1	1933	6467
1	1994	6468
1	2052	6469
1	2089	6470
1	2110	6471
1	2115	6472
1	2089	6473
1	2045	6474
1	1991	6475
1	1931	6476
1	1870	6477
1	1818	6478
1	1769	6479
1	1730	6480
1	1701	6481
1	1687	6482
1	1685	6483
1	1697	6484
1	1724	6485
1	1764	6486
1	1831	6487
1	1890	6488
1	1939	6489
1	1972	6490
1	1982	6491
1	1974	6492
1	1949	6493
1	1909	6494
1	1861	6495
1	1817	6496
1	1769	6497
1	1734	6498
1	1713	6499
1	1708	6500
1	1710	6501
1	1725	6502
1	1739	6503
1	1759	6504
1	1790	6505
1	1839	6506
1	1893	6507
1	1945	6508
1	1981	6509
1	2002	6510
1	2001	6511
1	1982	6512
1	1931	6513
1	1871	6514
1	1803	6515
1	1736	6516
1	1674	6517
1	1616	6518
1	1571	6519
1	1542	6520
1	1533	6521
1	1547	6522
1	1586	6523
1	1640	6524
1	1689	6525
1	1751	6526
1	1817	6527
1	1872	6528
1	1921	6529
1	1949	6530
1	1961	6531
1	1953	6532
1	1925	6533
1	1883	6534
1	1831	6535
1	1780	6536
1	1726	6537
1	1680	6538
1	1641	6539
1	1616	6540
1	1607	6541
1	1610	6542
1	1620	6543
1	1647	6544
1	1686	6545
1	1739	6546
1	1792	6547
1	1854	6548
1	1886	6549
1	1904	6550
1	1901	6551
1	1886	6552
1	1846	6553
1	1790	6554
1	1729	6555
1	1670	6556
1	1623	6557
1	1585	6558
1	1570	6559
1	1570	6560
1	1592	6561
1	1630	6562
1	1674	6563
1	1722	6564
1	1772	6565
1	1830	6566
1	1885	6567
1	1937	6568
1	1975	6569
1	2001	6570
1	2000	6571
1	1974	6572
1	1917	6573
1	1848	6574
1	1773	6575
1	1706	6576
1	1652	6577
1	1600	6578
1	1555	6579
1	1525	6580
1	1504	6581
1	1498	6582
1	1494	6583
1	1497	6584
1	1505	6585
1	1529	6586
1	1557	6587
1	1587	6588
1	1619	6589
1	1639	6590
1	1647	6591
1	1647	6592
1	1634	6593
1	1611	6594
1	1594	6595
1	1578	6596
1	1566	6597
1	1577	6598
1	1607	6599
1	1659	6600
1	1725	6601
1	1803	6602
1	1885	6603
1	1971	6604
1	2057	6605
1	2153	6606
1	2262	6607
1	2372	6608
1	2469	6609
1	2536	6610
1	2595	6611
1	2639	6612
1	2666	6613
1	2679	6614
1	2682	6615
1	2675	6616
1	2664	6617
1	2646	6618
1	2625	6619
1	2595	6620
1	2561	6621
1	2527	6622
1	2488	6623
1	2432	6624
1	2385	6625
1	2345	6626
1	2324	6627
1	2316	6628
1	2312	6629
1	2291	6630
1	2260	6631
1	2205	6632
1	2137	6633
1	2063	6634
1	1985	6635
1	1911	6636
1	1844	6637
1	1786	6638
1	1741	6639
1	1708	6640
1	1697	6641
1	1688	6642
1	1690	6643
1	1700	6644
1	1711	6645
1	1733	6646
1	1756	6647
1	1770	6648
1	1783	6649
1	1787	6650
1	1770	6651
1	1747	6652
1	1717	6653
1	1675	6654
1	1639	6655
1	1609	6656
1	1582	6657
1	1560	6658
1	1546	6659
1	1544	6660
1	1556	6661
1	1580	6662
1	1600	6663
1	1623	6664
1	1649	6665
1	1686	6666
1	1739	6667
1	1791	6668
1	1838	6669
1	1867	6670
1	1870	6671
1	1865	6672
1	1843	6673
1	1803	6674
1	1764	6675
1	1724	6676
1	1686	6677
1	1645	6678
1	1615	6679
1	1590	6680
1	1582	6681
1	1592	6682
1	1607	6683
1	1634	6684
1	1670	6685
1	1724	6686
1	1786	6687
1	1852	6688
1	1903	6689
1	1937	6690
1	1948	6691
1	1932	6692
1	1887	6693
1	1832	6694
1	1774	6695
1	1726	6696
1	1686	6697
1	1646	6698
1	1613	6699
1	1595	6700
1	1586	6701
1	1589	6702
1	1607	6703
1	1634	6704
1	1674	6705
1	1727	6706
1	1783	6707
1	1833	6708
1	1870	6709
1	1897	6710
1	1904	6711
1	1894	6712
1	1868	6713
1	1818	6714
1	1762	6715
1	1706	6716
1	1655	6717
1	1616	6718
1	1590	6719
1	1579	6720
1	1580	6721
1	1593	6722
1	1606	6723
1	1634	6724
1	1679	6725
1	1731	6726
1	1796	6727
1	1872	6728
1	1922	6729
1	1967	6730
1	1985	6731
1	1976	6732
1	1944	6733
1	1893	6734
1	1835	6735
1	1769	6736
1	1712	6737
1	1652	6738
1	1607	6739
1	1581	6740
1	1571	6741
1	1584	6742
1	1622	6743
1	1669	6744
1	1731	6745
1	1791	6746
1	1856	6747
1	1917	6748
1	1963	6749
1	2000	6750
1	2012	6751
1	1999	6752
1	1949	6753
1	1893	6754
1	1832	6755
1	1767	6756
1	1712	6757
1	1674	6758
1	1646	6759
1	1634	6760
1	1642	6761
1	1660	6762
1	1687	6763
1	1718	6764
1	1755	6765
1	1800	6766
1	1857	6767
1	1904	6768
1	1948	6769
1	1974	6770
1	1986	6771
1	1987	6772
1	1963	6773
1	1926	6774
1	1879	6775
1	1826	6776
1	1768	6777
1	1724	6778
1	1692	6779
1	1678	6780
1	1685	6781
1	1694	6782
1	1715	6783
1	1739	6784
1	1769	6785
1	1815	6786
1	1869	6787
1	1922	6788
1	1967	6789
1	2000	6790
1	2013	6791
1	2012	6792
1	1986	6793
1	1946	6794
1	1896	6795
1	1847	6796
1	1791	6797
1	1744	6798
1	1713	6799
1	1697	6800
1	1697	6801
1	1708	6802
1	1737	6803
1	1767	6804
1	1818	6805
1	1869	6806
1	1930	6807
1	1983	6808
1	2027	6809
1	2055	6810
1	2068	6811
1	2061	6812
1	2026	6813
1	1981	6814
1	1937	6815
1	1888	6816
1	1844	6817
1	1796	6818
1	1757	6819
1	1730	6820
1	1718	6821
1	1719	6822
1	1733	6823
1	1751	6824
1	1769	6825
1	1818	6826
1	1881	6827
1	1934	6828
1	1976	6829
1	2006	6830
1	2013	6831
1	1998	6832
1	1961	6833
1	1908	6834
1	1854	6835
1	1796	6836
1	1742	6837
1	1688	6838
1	1639	6839
1	1605	6840
1	1589	6841
1	1593	6842
1	1607	6843
1	1634	6844
1	1674	6845
1	1723	6846
1	1786	6847
1	1856	6848
1	1909	6849
1	1947	6850
1	1955	6851
1	1937	6852
1	1895	6853
1	1833	6854
1	1761	6855
1	1692	6856
1	1631	6857
1	1578	6858
1	1542	6859
1	1521	6860
1	1521	6861
1	1545	6862
1	1580	6863
1	1611	6864
1	1660	6865
1	1711	6866
1	1767	6867
1	1830	6868
1	1875	6869
1	1909	6870
1	1926	6871
1	1924	6872
1	1895	6873
1	1843	6874
1	1773	6875
1	1707	6876
1	1647	6877
1	1596	6878
1	1557	6879
1	1544	6880
1	1548	6881
1	1557	6882
1	1580	6883
1	1607	6884
1	1648	6885
1	1702	6886
1	1762	6887
1	1825	6888
1	1869	6889
1	1895	6890
1	1895	6891
1	1879	6892
1	1834	6893
1	1770	6894
1	1709	6895
1	1647	6896
1	1594	6897
1	1553	6898
1	1526	6899
1	1513	6900
1	1517	6901
1	1531	6902
1	1552	6903
1	1581	6904
1	1626	6905
1	1685	6906
1	1751	6907
1	1819	6908
1	1867	6909
1	1901	6910
1	1919	6911
1	1914	6912
1	1888	6913
1	1837	6914
1	1770	6915
1	1704	6916
1	1639	6917
1	1580	6918
1	1533	6919
1	1503	6920
1	1495	6921
1	1512	6922
1	1543	6923
1	1582	6924
1	1634	6925
1	1704	6926
1	1759	6927
1	1818	6928
1	1859	6929
1	1882	6930
1	1885	6931
1	1867	6932
1	1828	6933
1	1770	6934
1	1711	6935
1	1651	6936
1	1594	6937
1	1550	6938
1	1521	6939
1	1507	6940
1	1511	6941
1	1519	6942
1	1532	6943
1	1556	6944
1	1585	6945
1	1633	6946
1	1690	6947
1	1752	6948
1	1817	6949
1	1868	6950
1	1898	6951
1	1907	6952
1	1893	6953
1	1851	6954
1	1799	6955
1	1744	6956
1	1686	6957
1	1632	6958
1	1580	6959
1	1542	6960
1	1523	6961
1	1525	6962
1	1531	6963
1	1561	6964
1	1607	6965
1	1665	6966
1	1737	6967
1	1793	6968
1	1845	6969
1	1877	6970
1	1884	6971
1	1868	6972
1	1827	6973
1	1764	6974
1	1695	6975
1	1629	6976
1	1580	6977
1	1543	6978
1	1534	6979
1	1542	6980
1	1561	6981
1	1594	6982
1	1629	6983
1	1673	6984
1	1718	6985
1	1773	6986
1	1839	6987
1	1895	6988
1	1935	6989
1	1961	6990
1	1960	6991
1	1936	6992
1	1891	6993
1	1831	6994
1	1766	6995
1	1708	6996
1	1658	6997
1	1612	6998
1	1583	6999
1	1567	7000
1	1562	7001
1	1571	7002
1	1584	7003
1	1607	7004
1	1643	7005
1	1690	7006
1	1751	7007
1	1801	7008
1	1845	7009
1	1871	7010
1	1881	7011
1	1869	7012
1	1850	7013
1	1808	7014
1	1759	7015
1	1710	7016
1	1660	7017
1	1618	7018
1	1581	7019
1	1555	7020
1	1548	7021
1	1557	7022
1	1581	7023
1	1620	7024
1	1671	7025
1	1738	7026
1	1810	7027
1	1878	7028
1	1926	7029
1	1957	7030
1	1959	7031
1	1935	7032
1	1893	7033
1	1827	7034
1	1755	7035
1	1688	7036
1	1626	7037
1	1569	7038
1	1529	7039
1	1508	7040
1	1508	7041
1	1527	7042
1	1554	7043
1	1584	7044
1	1629	7045
1	1674	7046
1	1730	7047
1	1791	7048
1	1847	7049
1	1890	7050
1	1904	7051
1	1890	7052
1	1845	7053
1	1786	7054
1	1724	7055
1	1660	7056
1	1602	7057
1	1566	7058
1	1541	7059
1	1629	7080
1	1634	7081
1	1654	7082
1	1674	7083
1	1701	7084
1	1738	7085
1	1779	7086
1	1837	7087
1	1873	7088
1	1900	7089
1	1911	7090
1	1903	7091
1	1877	7092
1	1845	7093
1	1801	7094
1	1754	7095
1	1706	7096
1	1658	7097
1	1610	7098
1	1580	7099
1	1531	7060
1	1540	7061
1	1555	7062
1	1581	7063
1	1606	7064
1	1634	7065
1	1677	7066
1	1726	7067
1	1770	7068
1	1817	7069
1	1843	7070
1	1852	7071
1	1852	7072
1	1833	7073
1	1792	7074
1	1757	7075
1	1718	7076
1	1684	7077
1	1656	7078
1	1635	7079
1	1559	7100
1	1561	7101
1	1580	7102
1	1610	7103
1	1642	7104
1	1683	7105
1	1727	7106
1	1780	7107
1	1835	7108
1	1873	7109
1	1905	7110
1	1909	7111
1	1895	7112
1	1854	7113
1	1796	7114
1	1744	7115
1	1688	7116
1	1642	7117
1	1599	7118
1	1574	7119
1	1563	7120
1	1573	7121
1	1595	7122
1	1632	7123
1	1668	7124
1	1698	7125
1	1734	7126
1	1770	7127
1	1817	7128
1	1853	7129
1	1880	7130
1	1895	7131
1	1890	7132
1	1868	7133
1	1834	7134
1	1790	7135
1	1752	7136
1	1717	7137
1	1689	7138
1	1674	7139
1	1672	7140
1	1687	7141
1	1714	7142
1	1746	7143
1	1777	7144
1	1817	7145
1	1858	7146
1	1904	7147
1	1953	7148
1	1988	7149
1	2009	7150
1	2011	7151
1	1992	7152
1	1951	7153
1	1898	7154
1	1842	7155
1	1781	7156
1	1733	7157
1	1688	7158
1	1662	7159
1	1656	7160
1	1664	7161
1	1690	7162
1	1719	7163
1	1752	7164
1	1793	7165
1	1849	7166
1	1901	7167
1	1948	7168
1	1979	7169
1	1991	7170
1	1976	7171
1	1948	7172
1	1891	7173
1	1821	7174
1	1744	7175
1	1670	7176
1	1607	7177
1	1555	7178
1	1523	7179
1	1511	7180
1	1526	7181
1	1553	7182
1	1585	7183
1	1634	7184
1	1687	7185
1	1754	7186
1	1824	7187
1	1881	7188
1	1922	7189
1	1946	7190
1	1948	7191
1	1935	7192
1	1898	7193
1	1845	7194
1	1780	7195
1	1715	7196
1	1652	7197
1	1596	7198
1	1555	7199
1	1530	7200
1	1529	7201
1	1539	7202
1	1559	7203
1	1593	7204
1	1634	7205
1	1680	7206
1	1731	7207
1	1783	7208
1	1817	7209
1	1834	7210
1	1833	7211
1	1817	7212
1	1779	7213
1	1737	7214
1	1686	7215
1	1636	7216
1	1587	7217
1	1542	7218
1	1516	7219
1	1503	7220
1	1508	7221
1	1533	7222
1	1557	7223
1	1587	7224
1	1634	7225
1	1690	7226
1	1749	7227
1	1814	7228
1	1845	7229
1	1875	7230
1	1887	7231
1	1878	7232
1	1851	7233
1	1795	7234
1	1737	7235
1	1667	7236
1	1607	7237
1	1554	7238
1	1515	7239
1	1492	7240
1	1499	7241
1	1513	7242
1	1541	7243
1	1581	7244
1	1629	7245
1	1686	7246
1	1746	7247
1	1791	7248
1	1835	7249
1	1853	7250
1	1852	7251
1	1831	7252
1	1792	7253
1	1738	7254
1	1671	7255
1	1596	7256
1	1518	7257
1	1446	7258
1	1384	7259
1	1345	7260
1	1327	7261
1	1323	7262
1	1328	7263
1	1346	7264
1	1392	7265
1	1450	7266
1	1535	7267
1	1615	7268
1	1694	7269
1	1764	7270
1	1820	7271
1	1859	7272
1	1889	7273
1	1906	7274
1	1910	7275
1	1904	7276
1	1890	7277
1	1861	7278
1	1846	7279
1	2332	7300
1	2262	7301
1	2195	7302
1	2135	7303
1	2078	7304
1	2031	7305
1	2000	7306
1	1985	7307
1	1974	7308
1	1973	7309
1	1966	7310
1	1949	7311
1	1923	7312
1	1880	7313
1	1831	7314
1	1783	7315
1	1747	7316
1	1712	7317
1	1680	7318
1	1650	7319
1	1843	7280
1	1855	7281
1	1891	7282
1	1932	7283
1	1988	7284
1	2066	7285
1	2166	7286
1	2289	7287
1	2415	7288
1	2518	7289
1	2606	7290
1	2679	7291
1	2719	7292
1	2724	7293
1	2706	7294
1	2666	7295
1	2619	7296
1	2558	7297
1	2494	7298
1	2412	7299
1	1494	7340
1	1490	7341
1	1503	7342
1	1523	7343
1	1544	7344
1	1593	7345
1	1644	7346
1	1697	7347
1	1747	7348
1	1779	7349
1	1803	7350
1	1814	7351
1	1796	7352
1	1755	7353
1	1701	7354
1	1641	7355
1	1582	7356
1	1530	7357
1	1498	7358
1	1469	7359
1	1620	7320
1	1606	7321
1	1607	7322
1	1607	7323
1	1618	7324
1	1643	7325
1	1679	7326
1	1724	7327
1	1775	7328
1	1814	7329
1	1849	7330
1	1863	7331
1	1848	7332
1	1817	7333
1	1764	7334
1	1713	7335
1	1660	7336
1	1602	7337
1	1548	7338
1	1512	7339
1	1456	7360
1	1461	7361
1	1477	7362
1	1503	7363
1	1529	7364
1	1564	7365
1	1620	7366
1	1686	7367
1	1749	7368
1	1814	7369
1	1859	7370
1	1887	7371
1	1899	7372
1	1884	7373
1	1844	7374
1	1791	7375
1	1736	7376
1	1679	7377
1	1628	7378
1	1589	7379
1	1581	7400
1	1579	7401
1	1593	7402
1	1616	7403
1	1638	7404
1	1669	7405
1	1712	7406
1	1763	7407
1	1818	7408
1	1864	7409
1	1898	7410
1	1910	7411
1	1899	7412
1	1861	7413
1	1809	7414
1	1755	7415
1	1706	7416
1	1665	7417
1	1633	7418
1	1603	7419
1	1561	7380
1	1557	7381
1	1570	7382
1	1584	7383
1	1608	7384
1	1651	7385
1	1701	7386
1	1764	7387
1	1817	7388
1	1851	7389
1	1872	7390
1	1878	7391
1	1872	7392
1	1849	7393
1	1813	7394
1	1764	7395
1	1718	7396
1	1670	7397
1	1626	7398
1	1595	7399
1	1581	7420
1	1581	7421
1	1593	7422
1	1622	7423
1	1656	7424
1	1692	7425
1	1751	7426
1	1814	7427
1	1867	7428
1	1907	7429
1	1934	7430
1	1940	7431
1	1932	7432
1	1900	7433
1	1852	7434
1	1800	7435
1	1751	7436
1	1699	7437
1	1655	7438
1	1626	7439
1	1611	7440
1	1607	7441
1	1613	7442
1	1622	7443
1	1644	7444
1	1674	7445
1	1715	7446
1	1764	7447
1	1817	7448
1	1851	7449
1	1869	7450
1	1875	7451
1	1868	7452
1	1854	7453
1	1831	7454
1	1813	7455
1	1791	7456
1	1772	7457
1	1754	7458
1	1742	7459
1	1738	7460
1	1743	7461
1	1767	7462
1	1791	7463
1	1826	7464
1	1859	7465
1	1899	7466
1	1948	7467
1	1993	7468
1	2026	7469
1	2052	7470
1	2057	7471
1	2044	7472
1	2001	7473
1	1945	7474
1	1886	7475
1	1827	7476
1	1776	7477
1	1737	7478
1	1706	7479
1	1690	7480
1	1688	7481
1	1697	7482
1	1703	7483
1	1712	7484
1	1737	7485
1	1773	7486
1	1824	7487
1	1873	7488
1	1916	7489
1	1945	7490
1	1950	7491
1	1944	7492
1	1912	7493
1	1869	7494
1	1822	7495
1	1775	7496
1	1737	7497
1	1708	7498
1	1688	7499
1	1683	7500
1	1683	7501
1	1694	7502
1	1703	7503
1	1724	7504
1	1756	7505
1	1800	7506
1	1855	7507
1	1910	7508
1	1951	7509
1	1976	7510
1	1981	7511
1	1965	7512
1	1924	7513
1	1869	7514
1	1803	7515
1	1737	7516
1	1676	7517
1	1620	7518
1	1585	7519
1	1566	7520
1	1566	7521
1	1581	7522
1	1603	7523
1	1625	7524
1	1656	7525
1	1694	7526
1	1738	7527
1	1780	7528
1	1811	7529
1	1836	7530
1	1843	7531
1	1838	7532
1	1803	7533
1	1749	7534
1	1688	7535
1	1632	7536
1	1577	7537
1	1533	7538
1	1503	7539
1	1493	7540
1	1508	7541
1	1527	7542
1	1553	7543
1	1580	7544
1	1625	7545
1	1681	7546
1	1746	7547
1	1808	7548
1	1862	7549
1	1906	7550
1	1926	7551
1	1922	7552
1	1895	7553
1	1840	7554
1	1767	7555
1	1698	7556
1	1625	7557
1	1559	7558
1	1514	7559
1	1485	7560
1	1476	7561
1	1489	7562
1	1511	7563
1	1544	7564
1	1593	7565
1	1652	7566
1	1715	7567
1	1769	7568
1	1815	7569
1	1840	7570
1	1842	7571
1	1821	7572
1	1782	7573
1	1733	7574
1	1682	7575
1	1631	7576
1	1583	7577
1	1541	7578
1	1515	7579
1	1499	7580
1	1492	7581
1	1503	7582
1	1513	7583
1	1539	7584
1	1584	7585
1	1647	7586
1	1712	7587
1	1777	7588
1	1834	7589
1	1870	7590
1	1887	7591
1	1881	7592
1	1846	7593
1	1796	7594
1	1749	7595
1	1695	7596
1	1649	7597
1	1607	7598
1	1569	7599
1	1543	7600
1	1534	7601
1	1547	7602
1	1570	7603
1	1605	7604
1	1647	7605
1	1700	7606
1	1757	7607
1	1813	7608
1	1851	7609
1	1872	7610
1	1877	7611
1	1856	7612
1	1819	7613
1	1755	7614
1	1688	7615
1	1625	7616
1	1566	7617
1	1526	7618
1	1502	7619
1	1491	7620
1	1495	7621
1	1513	7622
1	1541	7623
1	1580	7624
1	1620	7625
1	1665	7626
1	1718	7627
1	1778	7628
1	1817	7629
1	1854	7630
1	1863	7631
1	1854	7632
1	1828	7633
1	1786	7634
1	1739	7635
1	1688	7636
1	1639	7637
1	1594	7638
1	1565	7639
1	1550	7640
1	1554	7641
1	1567	7642
1	1593	7643
1	1620	7644
1	1662	7645
1	1710	7646
1	1760	7647
1	1803	7648
1	1837	7649
1	1850	7650
1	1844	7651
1	1824	7652
1	1780	7653
1	1733	7654
1	1679	7655
1	1623	7656
1	1574	7657
1	1544	7658
1	1529	7659
1	1528	7660
1	1536	7661
1	1556	7662
1	1585	7663
1	1618	7664
1	1652	7665
1	1692	7666
1	1738	7667
1	1778	7668
1	1811	7669
1	1827	7670
1	1822	7671
1	1813	7672
1	1769	7673
1	1721	7674
1	1670	7675
1	1629	7676
1	1596	7677
1	1579	7678
1	1567	7679
1	1571	7680
1	1587	7681
1	1613	7682
1	1642	7683
1	1667	7684
1	1703	7685
1	1742	7686
1	1802	7687
1	1859	7688
1	1897	7689
1	1918	7690
1	1916	7691
1	1895	7692
1	1854	7693
1	1791	7694
1	1731	7695
1	1670	7696
1	1615	7697
1	1566	7698
1	1536	7699
1	1529	7700
1	1539	7701
1	1557	7702
1	1585	7703
1	1608	7704
1	1646	7705
1	1690	7706
1	1742	7707
1	1796	7708
1	1845	7709
1	1871	7710
1	1877	7711
1	1860	7712
1	1818	7713
1	1757	7714
1	1700	7715
1	1643	7716
1	1592	7717
1	1548	7718
1	1521	7719
1	1513	7720
1	1524	7721
1	1549	7722
1	1590	7723
1	1634	7724
1	1680	7725
1	1736	7726
1	1791	7727
1	1850	7728
1	1895	7729
1	1917	7730
1	1922	7731
1	1904	7732
1	1868	7733
1	1816	7734
1	1746	7735
1	1683	7736
1	1612	7737
1	1553	7738
1	1505	7739
1	1477	7740
1	1467	7741
1	1476	7742
1	1490	7743
1	1525	7744
1	1571	7745
1	1634	7746
1	1701	7747
1	1769	7748
1	1822	7749
1	1855	7750
1	1868	7751
1	1856	7752
1	1829	7753
1	1779	7754
1	1724	7755
1	1668	7756
1	1617	7757
1	1571	7758
1	1543	7759
1	1534	7760
1	1542	7761
1	1569	7762
1	1600	7763
1	1634	7764
1	1675	7765
1	1729	7766
1	1791	7767
1	1851	7768
1	1893	7769
1	1909	7770
1	1906	7771
1	1880	7772
1	1826	7773
1	1756	7774
1	1687	7775
1	1621	7776
1	1575	7777
1	1539	7778
1	1522	7779
1	1521	7780
1	1538	7781
1	1573	7782
1	1618	7783
1	1674	7784
1	1733	7785
1	1790	7786
1	1856	7787
1	1910	7788
1	1947	7789
1	1958	7790
1	1942	7791
1	1913	7792
1	1857	7793
1	1786	7794
1	1712	7795
1	1638	7796
1	1576	7797
1	1528	7798
1	1503	7799
1	1501	7800
1	1512	7801
1	1535	7802
1	1563	7803
1	1602	7804
1	1648	7805
1	1697	7806
1	1754	7807
1	1817	7808
1	1859	7809
1	1890	7810
1	1895	7811
1	1881	7812
1	1846	7813
1	1794	7814
1	1741	7815
1	1688	7816
1	1641	7817
1	1595	7818
1	1567	7819
1	1550	7820
1	1548	7821
1	1563	7822
1	1585	7823
1	1615	7824
1	1652	7825
1	1716	7826
1	1779	7827
1	1845	7828
1	1886	7829
1	1914	7830
1	1919	7831
1	1907	7832
1	1870	7833
1	1821	7834
1	1764	7835
1	1710	7836
1	1661	7837
1	1622	7838
1	1598	7839
1	1585	7840
1	1593	7841
1	1605	7842
1	1634	7843
1	1677	7844
1	1731	7845
1	1801	7846
1	1883	7847
1	1948	7848
1	2004	7849
1	2039	7850
1	2042	7851
1	2016	7852
1	1973	7853
1	1907	7854
1	1839	7855
1	1767	7856
1	1708	7857
1	1659	7858
1	1621	7859
1	1598	7860
1	1593	7861
1	1603	7862
1	1621	7863
1	1646	7864
1	1683	7865
1	1733	7866
1	1794	7867
1	1852	7868
1	1890	7869
1	1908	7870
1	1908	7871
1	1891	7872
1	1859	7873
1	1818	7874
1	1773	7875
1	1728	7876
1	1685	7877
1	1636	7878
1	1607	7879
1	1590	7880
1	1589	7881
1	1608	7882
1	1634	7883
1	1661	7884
1	1697	7885
1	1738	7886
1	1792	7887
1	1845	7888
1	1886	7889
1	1907	7890
1	1903	7891
1	1882	7892
1	1832	7893
1	1764	7894
1	1700	7895
1	1633	7896
1	1576	7897
1	1521	7898
1	1479	7899
1	1454	7900
1	1450	7901
1	1459	7902
1	1481	7903
1	1512	7904
1	1555	7905
1	1626	7906
1	1712	7907
1	1789	7908
1	1858	7909
1	1904	7910
1	1927	7911
1	1926	7912
1	1913	7913
1	1870	7914
1	1821	7915
1	1764	7916
1	1712	7917
1	1660	7918
1	1615	7919
1	1543	7940
1	1541	7941
1	1544	7942
1	1555	7943
1	1577	7944
1	1602	7945
1	1650	7946
1	1698	7947
1	1749	7948
1	1789	7949
1	1814	7950
1	1815	7951
1	1791	7952
1	1742	7953
1	1682	7954
1	1613	7955
1	1543	7956
1	1474	7957
1	1412	7958
1	1352	7959
1	1581	7920
1	1557	7921
1	1548	7922
1	1548	7923
1	1560	7924
1	1582	7925
1	1616	7926
1	1662	7927
1	1717	7928
1	1765	7929
1	1801	7930
1	1836	7931
1	1841	7932
1	1818	7933
1	1773	7934
1	1724	7935
1	1671	7936
1	1626	7937
1	1584	7938
1	1557	7939
1	1962	7980
1	2017	7981
1	2089	7982
1	2165	7983
1	2264	7984
1	2367	7985
1	2477	7986
1	2581	7987
1	2681	7988
1	2759	7989
1	2816	7990
1	2844	7991
1	2842	7992
1	2806	7993
1	2745	7994
1	2655	7995
1	2545	7996
1	2431	7997
1	2305	7998
1	2189	7999
1	1319	7960
1	1311	7961
1	1325	7962
1	1360	7963
1	1413	7964
1	1476	7965
1	1548	7966
1	1632	7967
1	1705	7968
1	1778	7969
1	1844	7970
1	1888	7971
1	1908	7972
1	1911	7973
1	1895	7974
1	1881	7975
1	1877	7976
1	1882	7977
1	1895	7978
1	1922	7979
1	2099	8000
1	2026	8000
1	1972	8002
1	1935	8003
1	1904	8004
1	1890	8005
1	1893	8006
1	1909	8007
1	1935	8008
1	1953	8009
1	1962	8010
1	1952	8011
1	1921	8012
1	1867	8013
1	1800	8013
1	1737	8015
1	1670	8016
1	1612	8016
1	1561	8018
1	1525	8019
1	1503	8020
1	1497	8021
1	1501	8022
1	1526	8023
1	1556	8024
1	1602	8025
1	1664	8026
1	1736	8027
1	1795	8028
1	1847	8029
1	1870	8029
1	1872	8031
1	1854	8032
1	1803	8032
1	1742	8034
1	1679	8035
1	1623	8036
1	1568	8037
1	1524	8038
1	1495	8039
1	1484	8040
1	1485	8041
1	1499	8042
1	1517	8043
1	1549	8044
1	1589	8045
1	1634	8045
1	1690	8047
1	1751	8048
1	1800	8048
1	1841	8050
1	1856	8051
1	1852	8052
1	1830	8053
1	1787	8054
1	1734	8055
1	1681	8056
1	1626	8057
1	1573	8058
1	1530	8059
1	1502	8060
1	1490	8061
1	1500	8061
1	1520	8063
1	1551	8064
1	1595	8064
1	1651	8066
1	1712	8067
1	1772	8068
1	1827	8069
1	1865	8070
1	1881	8071
1	1871	8072
1	1836	8073
1	1788	8074
1	1738	8074
1	1688	8076
1	1648	8077
1	1616	8077
1	1594	8079
1	1574	8100
1	1590	8101
1	1620	8102
1	1649	8103
1	1695	8104
1	1746	8105
1	1812	8106
1	1886	8106
1	1948	8108
1	1988	8109
1	2000	8109
1	1988	8111
1	1951	8112
1	1895	8113
1	1823	8114
1	1748	8115
1	1673	8116
1	1607	8117
1	1548	8118
1	1512	8119
1	1580	8080
1	1575	8080
1	1579	8082
1	1591	8083
1	1616	8084
1	1655	8085
1	1707	8086
1	1764	8087
1	1818	8088
1	1856	8089
1	1878	8090
1	1878	8090
1	1865	8092
1	1822	8093
1	1765	8093
1	1713	8095
1	1665	8096
1	1623	8096
1	1593	8098
1	1577	8099
1	1495	8120
1	1500	8121
1	1525	8122
1	1557	8122
1	1600	8124
1	1646	8125
1	1716	8125
1	1786	8127
1	1855	8128
1	1916	8129
1	1958	8130
1	1974	8131
1	1965	8132
1	1930	8133
1	1878	8134
1	1818	8135
1	1752	8136
1	1692	8137
1	1638	8138
1	1602	8138
1	1581	8140
1	1580	8141
1	1595	8141
1	1623	8143
1	1660	8144
1	1711	8145
1	1769	8146
1	1837	8147
1	1892	8148
1	1930	8149
1	1956	8150
1	1961	8151
1	1949	8152
1	1931	8153
1	1890	8154
1	1843	8154
1	1788	8156
1	1739	8157
1	1706	8157
1	1685	8159
1	1660	8180
1	1662	8181
1	1679	8182
1	1698	8183
1	1723	8184
1	1760	8185
1	1813	8186
1	1869	8186
1	1922	8188
1	1958	8189
1	1974	8189
1	1970	8191
1	1948	8192
1	1898	8193
1	1843	8194
1	1780	8195
1	1723	8196
1	1678	8197
1	1644	8198
1	1620	8199
1	1676	8160
1	1686	8161
1	1708	8162
1	1736	8163
1	1769	8164
1	1818	8165
1	1877	8166
1	1951	8167
1	2013	8168
1	2060	8169
1	2089	8170
1	2093	8170
1	2075	8172
1	2027	8173
1	1962	8173
1	1888	8175
1	1817	8176
1	1755	8177
1	1710	8178
1	1677	8179
1	1611	8200
1	1619	8201
1	1634	8202
1	1659	8203
1	1691	8204
1	1736	8205
1	1785	8206
1	1843	8207
1	1895	8208
1	1940	8209
1	1971	8210
1	1977	8211
1	1967	8212
1	1942	8213
1	1890	8214
1	1828	8215
1	1760	8216
1	1693	8217
1	1639	8218
1	1600	8219
1	1581	8220
1	1577	8221
1	1582	8222
1	1595	8223
1	1626	8224
1	1665	8225
1	1720	8226
1	1783	8227
1	1847	8228
1	1887	8229
1	1922	8230
1	1922	8231
1	1902	8232
1	1860	8233
1	1800	8234
1	1738	8235
1	1675	8236
1	1619	8237
1	1566	8238
1	1529	8239
1	1505	8240
1	1502	8241
1	1516	8242
1	1542	8243
1	1569	8244
1	1620	8245
1	1677	8246
1	1742	8247
1	1817	8248
1	1871	8249
1	1910	8250
1	1920	8251
1	1908	8252
1	1869	8253
1	1815	8254
1	1749	8255
1	1683	8256
1	1621	8257
1	1569	8258
1	1529	8259
1	1505	8260
1	1503	8261
1	1521	8262
1	1548	8263
1	1582	8264
1	1626	8265
1	1683	8266
1	1740	8267
1	1795	8268
1	1849	8269
1	1881	8270
1	1883	8271
1	1867	8272
1	1823	8273
1	1769	8274
1	1713	8275
1	1654	8276
1	1594	8277
1	1544	8278
1	1508	8279
1	1489	8280
1	1489	8281
1	1494	8282
1	1518	8283
1	1553	8284
1	1596	8285
1	1647	8286
1	1712	8287
1	1764	8288
1	1809	8289
1	1831	8290
1	1832	8291
1	1817	8292
1	1778	8293
1	1733	8294
1	1679	8295
1	1624	8296
1	1569	8297
1	1521	8298
1	1489	8299
1	1472	8300
1	1466	8301
1	1477	8302
1	1508	8303
1	1544	8304
1	1591	8305
1	1647	8306
1	1708	8307
1	1765	8308
1	1826	8309
1	1860	8310
1	1869	8311
1	1857	8312
1	1818	8313
1	1767	8314
1	1716	8315
1	1661	8316
1	1620	8317
1	1581	8318
1	1555	8319
1	1544	8320
1	1548	8321
1	1561	8322
1	1589	8323
1	1608	8324
1	1647	8325
1	1695	8326
1	1749	8327
1	1803	8328
1	1845	8329
1	1873	8330
1	1883	8331
1	1880	8332
1	1856	8333
1	1814	8334
1	1759	8335
1	1707	8336
1	1651	8337
1	1607	8338
1	1575	8339
1	1555	8340
1	1553	8341
1	1557	8342
1	1566	8343
1	1580	8344
1	1607	8345
1	1655	8346
1	1713	8347
1	1782	8348
1	1842	8349
1	1887	8350
1	1910	8351
1	1912	8352
1	1887	8353
1	1845	8354
1	1792	8355
1	1738	8356
1	1680	8357
1	1620	8358
1	1574	8359
1	1557	8380
1	1561	8381
1	1580	8382
1	1603	8383
1	1633	8384
1	1670	8385
1	1714	8386
1	1764	8387
1	1800	8388
1	1837	8389
1	1857	8390
1	1857	8391
1	1845	8392
1	1807	8393
1	1751	8394
1	1701	8395
1	1652	8396
1	1607	8397
1	1566	8398
1	1541	8399
1	1544	8360
1	1529	8361
1	1529	8362
1	1529	8363
1	1540	8364
1	1571	8365
1	1620	8366
1	1679	8367
1	1738	8368
1	1791	8369
1	1839	8370
1	1860	8371
1	1856	8372
1	1819	8373
1	1769	8374
1	1718	8375
1	1667	8376
1	1626	8377
1	1590	8378
1	1566	8379
1	1530	8400
1	1543	8401
1	1568	8402
1	1592	8403
1	1620	8404
1	1657	8405
1	1703	8406
1	1757	8407
1	1816	8408
1	1847	8409
1	1866	8410
1	1868	8411
1	1858	8412
1	1834	8413
1	1792	8414
1	1747	8415
1	1698	8416
1	1651	8417
1	1602	8418
1	1565	8419
1	1542	8420
1	1539	8421
1	1555	8422
1	1580	8423
1	1607	8424
1	1643	8425
1	1698	8426
1	1752	8427
1	1814	8428
1	1846	8429
1	1877	8430
1	1878	8431
1	1863	8432
1	1826	8433
1	1765	8434
1	1712	8435
1	1659	8436
1	1612	8437
1	1585	8438
1	1564	8439
1	1561	8440
1	1581	8441
1	1607	8442
1	1634	8443
1	1660	8444
1	1688	8445
1	1724	8446
1	1760	8447
1	1785	8448
1	1803	8449
1	1809	8450
1	1796	8451
1	1778	8452
1	1749	8453
1	1703	8454
1	1657	8455
1	1612	8456
1	1579	8457
1	1546	8458
1	1527	8459
1	1516	8460
1	1523	8461
1	1537	8462
1	1555	8463
1	1584	8464
1	1633	8465
1	1693	8466
1	1764	8467
1	1832	8468
1	1882	8469
1	1913	8470
1	1922	8471
1	1906	8472
1	1869	8473
1	1814	8474
1	1751	8475
1	1692	8476
1	1638	8477
1	1592	8478
1	1557	8479
1	1490	8500
1	1488	8501
1	1500	8502
1	1523	8503
1	1561	8504
1	1615	8505
1	1675	8506
1	1733	8507
1	1778	8508
1	1819	8509
1	1843	8510
1	1844	8511
1	1829	8512
1	1800	8513
1	1753	8514
1	1702	8515
1	1657	8516
1	1621	8517
1	1600	8518
1	1589	8519
1	1548	8480
1	1553	8481
1	1574	8482
1	1593	8483
1	1621	8484
1	1659	8485
1	1707	8486
1	1763	8487
1	1824	8488
1	1869	8489
1	1896	8490
1	1908	8491
1	1895	8492
1	1854	8493
1	1790	8494
1	1718	8495
1	1652	8496
1	1594	8497
1	1544	8498
1	1510	8499
1	1586	8520
1	1593	8521
1	1607	8522
1	1620	8523
1	1639	8524
1	1664	8525
1	1697	8526
1	1730	8527
1	1764	8528
1	1783	8529
1	1790	8530
1	1791	8531
1	1778	8532
1	1751	8533
1	1715	8534
1	1678	8535
1	1639	8536
1	1607	8537
1	1572	8538
1	1549	8539
1	1542	8540
1	1550	8541
1	1574	8542
1	1611	8543
1	1643	8544
1	1697	8545
1	1751	8546
1	1814	8547
1	1861	8548
1	1895	8549
1	1917	8550
1	1921	8551
1	1896	8552
1	1855	8553
1	1802	8554
1	1750	8555
1	1698	8556
1	1647	8557
1	1602	8558
1	1559	8559
1	1539	8560
1	1537	8561
1	1551	8562
1	1580	8563
1	1613	8564
1	1661	8565
1	1719	8566
1	1786	8567
1	1843	8568
1	1886	8569
1	1918	8570
1	1931	8571
1	1927	8572
1	1899	8573
1	1854	8574
1	1796	8575
1	1738	8576
1	1686	8577
1	1651	8578
1	1632	8579
1	1629	8580
1	1634	8581
1	1646	8582
1	1662	8583
1	1686	8584
1	1721	8585
1	1764	8586
1	1823	8587
1	1869	8588
1	1912	8589
1	1947	8590
1	1957	8591
1	1948	8592
1	1922	8593
1	1872	8594
1	1819	8595
1	1757	8596
1	1700	8597
1	1647	8598
1	1608	8599
1	1589	8600
1	1582	8601
1	1586	8602
1	1602	8603
1	1620	8604
1	1652	8605
1	1699	8606
1	1752	8607
1	1800	8608
1	1843	8609
1	1869	8610
1	1881	8611
1	1872	8612
1	1838	8613
1	1781	8614
1	1726	8615
1	1669	8616
1	1622	8617
1	1584	8618
1	1557	8619
1	1503	8640
1	1505	8641
1	1529	8642
1	1559	8643
1	1598	8644
1	1638	8645
1	1688	8646
1	1742	8647
1	1801	8648
1	1845	8649
1	1869	8650
1	1870	8651
1	1847	8652
1	1796	8653
1	1731	8654
1	1665	8655
1	1606	8656
1	1553	8657
1	1507	8658
1	1486	8659
1	1548	8620
1	1553	8621
1	1578	8622
1	1610	8623
1	1644	8624
1	1687	8625
1	1740	8626
1	1791	8627
1	1840	8628
1	1867	8629
1	1883	8630
1	1888	8631
1	1870	8632
1	1831	8633
1	1764	8634
1	1703	8635
1	1647	8636
1	1594	8637
1	1548	8638
1	1516	8639
1	1476	8660
1	1477	8661
1	1495	8662
1	1520	8663
1	1553	8664
1	1600	8665
1	1656	8666
1	1714	8667
1	1770	8668
1	1824	8669
1	1859	8670
1	1869	8671
1	1856	8672
1	1813	8673
1	1751	8674
1	1690	8675
1	1629	8676
1	1572	8677
1	1521	8678
1	1479	8679
1	1455	8680
1	1450	8681
1	1452	8682
1	1464	8683
1	1481	8684
1	1510	8685
1	1555	8686
1	1613	8687
1	1661	8688
1	1697	8689
1	1712	8690
1	1712	8691
1	1697	8692
1	1659	8693
1	1607	8694
1	1549	8695
1	1494	8696
1	1451	8697
1	1424	8698
1	1412	8699
1	1418	8700
1	1436	8701
1	1466	8702
1	1503	8703
1	1551	8704
1	1616	8705
1	1697	8706
1	1791	8707
1	1894	8708
1	1976	8709
1	2052	8710
1	2105	8711
1	2139	8712
1	2160	8713
1	2169	8714
1	2171	8715
1	2172	8716
1	2183	8717
1	2196	8718
1	2233	8719
1	2275	8720
1	2332	8721
1	2403	8722
1	2476	8723
1	2532	8724
1	2606	8725
1	2685	8726
1	2747	8727
1	2779	8728
1	2783	8729
1	2749	8730
1	2685	8731
1	2596	8732
1	2499	8733
1	2379	8734
1	2251	8735
1	2119	8736
1	1998	8737
1	1886	8738
1	1792	8739
1	1427	8760
1	1434	8761
1	1449	8762
1	1469	8763
1	1503	8764
1	1553	8765
1	1608	8766
1	1682	8767
1	1739	8768
1	1787	8769
1	1821	8770
1	1827	8771
1	1800	8772
1	1752	8773
1	1690	8774
1	1628	8775
1	1560	8776
1	1503	8777
1	1450	8778
1	1422	8779
1	1409	8780
1	1416	8781
1	1440	8782
1	1473	8783
1	1508	8784
1	1553	8785
1	1602	8786
1	1656	8787
1	1707	8788
1	1747	8789
1	1769	8790
1	1777	8791
1	1766	8792
1	1738	8793
1	1702	8794
1	1670	8795
1	1636	8796
1	1613	8797
1	1585	8798
1	1563	8799
1	1734	8740
1	1697	8741
1	1671	8742
1	1663	8743
1	1674	8744
1	1703	8745
1	1749	8746
1	1800	8747
1	1842	8748
1	1865	8749
1	1869	8750
1	1850	8751
1	1821	8752
1	1764	8753
1	1704	8754
1	1642	8755
1	1579	8756
1	1516	8757
1	1467	8758
1	1438	8759
1	1551	8800
1	1547	8801
1	1557	8802
1	1581	8803
1	1612	8804
1	1648	8805
1	1697	8806
1	1744	8807
1	1788	8808
1	1817	8809
1	1823	8810
1	1795	8811
1	1754	8812
1	1700	8813
1	1634	8814
1	1576	8815
1	1528	8816
1	1491	8817
1	1476	8818
1	1476	8819
1	1490	8820
1	1515	8821
1	1544	8822
1	1572	8823
1	1607	8824
1	1646	8825
1	1691	8826
1	1740	8827
1	1792	8828
1	1837	8829
1	1857	8830
1	1867	8831
1	1851	8832
1	1818	8833
1	1765	8834
1	1719	8835
1	1674	8836
1	1632	8837
1	1585	8838
1	1555	8839
1	1530	8840
1	1517	8841
1	1520	8842
1	1533	8843
1	1549	8844
1	1599	8845
1	1647	8846
1	1709	8847
1	1764	8848
1	1814	8849
1	1845	8850
1	1850	8851
1	1827	8852
1	1781	8853
1	1733	8854
1	1686	8855
1	1647	8856
1	1610	8857
1	1577	8858
1	1547	8859
1	1529	8860
1	1528	8861
1	1543	8862
1	1572	8863
1	1613	8864
1	1667	8865
1	1729	8866
1	1796	8867
1	1852	8868
1	1896	8869
1	1931	8870
1	1942	8871
1	1935	8872
1	1901	8873
1	1856	8874
1	1803	8875
1	1750	8876
1	1697	8877
1	1656	8878
1	1631	8879
1	1618	8880
1	1615	8881
1	1618	8882
1	1625	8883
1	1646	8884
1	1683	8885
1	1726	8886
1	1785	8887
1	1843	8888
1	1885	8889
1	1914	8890
1	1919	8891
1	1902	8892
1	1865	8893
1	1817	8894
1	1764	8895
1	1723	8896
1	1681	8897
1	1641	8898
1	1616	8899
1	1611	8900
1	1625	8901
1	1654	8902
1	1684	8903
1	1713	8904
1	1755	8905
1	1815	8906
1	1869	8907
1	1922	8908
1	1962	8909
1	1992	8910
1	1998	8911
1	1976	8912
1	1935	8913
1	1881	8914
1	1826	8915
1	1760	8916
1	1706	8917
1	1656	8918
1	1609	8919
1	1576	8940
1	1569	8941
1	1575	8942
1	1583	8943
1	1608	8944
1	1656	8945
1	1712	8946
1	1769	8947
1	1831	8948
1	1864	8949
1	1881	8950
1	1874	8951
1	1852	8952
1	1814	8953
1	1760	8954
1	1706	8955
1	1652	8956
1	1606	8957
1	1558	8958
1	1529	8959
1	1580	8920
1	1564	8921
1	1571	8922
1	1594	8923
1	1634	8924
1	1681	8925
1	1742	8926
1	1808	8927
1	1863	8928
1	1908	8929
1	1940	8930
1	1946	8931
1	1932	8932
1	1896	8933
1	1847	8934
1	1786	8935
1	1731	8936
1	1675	8937
1	1627	8938
1	1594	8939
1	1514	8960
1	1505	8961
1	1514	8962
1	1529	8963
1	1556	8964
1	1596	8965
1	1655	8966
1	1718	8967
1	1780	8968
1	1830	8969
1	1852	8970
1	1848	8971
1	1822	8972
1	1769	8973
1	1718	8974
1	1672	8975
1	1623	8976
1	1577	8977
1	1529	8978
1	1494	8979
1	1476	8980
1	1476	8981
1	1479	8982
1	1492	8983
1	1515	8984
1	1554	8985
1	1607	8986
1	1665	8987
1	1716	8988
1	1755	8989
1	1778	8990
1	1785	8991
1	1778	8992
1	1750	8993
1	1710	8994
1	1667	8995
1	1628	8996
1	1587	8997
1	1554	8998
1	1527	8999
1	1513	9000
1	1517	9001
1	1529	9002
1	1544	9003
1	1571	9004
1	1607	9005
1	1651	9006
1	1696	9007
1	1738	9008
1	1764	9009
1	1773	9010
1	1764	9011
1	1740	9012
1	1699	9013
1	1652	9014
1	1605	9015
1	1555	9016
1	1508	9017
1	1469	9018
1	1448	9019
1	1438	9020
1	1446	9021
1	1467	9022
1	1494	9023
1	1523	9024
1	1561	9025
1	1617	9026
1	1670	9027
1	1721	9028
1	1756	9029
1	1778	9030
1	1785	9031
1	1769	9032
1	1735	9033
1	1686	9034
1	1633	9035
1	1581	9036
1	1533	9037
1	1494	9038
1	1473	9039
1	1402	9060
1	1410	9061
1	1435	9062
1	1467	9063
1	1514	9064
1	1573	9065
1	1647	9066
1	1729	9067
1	1796	9068
1	1850	9069
1	1878	9070
1	1881	9071
1	1862	9072
1	1817	9073
1	1755	9074
1	1692	9075
1	1634	9076
1	1578	9077
1	1523	9078
1	1485	9079
1	1461	9040
1	1467	9041
1	1478	9042
1	1503	9043
1	1535	9044
1	1579	9045
1	1629	9046
1	1685	9047
1	1728	9048
1	1762	9049
1	1775	9050
1	1764	9051
1	1740	9052
1	1705	9053
1	1656	9054
1	1602	9055
1	1542	9056
1	1488	9057
1	1442	9058
1	1413	9059
1	1464	9080
1	1462	9081
1	1477	9082
1	1503	9083
1	1536	9084
1	1581	9085
1	1638	9086
1	1698	9087
1	1757	9088
1	1803	9089
1	1835	9090
1	1840	9091
1	1813	9092
1	1751	9093
1	1684	9094
1	1613	9095
1	1544	9096
1	1494	9097
1	1461	9098
1	1443	9099
1	1437	9100
1	1449	9101
1	1469	9102
1	1495	9103
1	1528	9104
1	1569	9105
1	1625	9106
1	1686	9107
1	1740	9108
1	1778	9109
1	1792	9110
1	1782	9111
1	1755	9112
1	1720	9113
1	1670	9114
1	1625	9115
1	1579	9116
1	1539	9117
1	1512	9118
1	1500	9119
1	1502	9120
1	1514	9121
1	1530	9122
1	1544	9123
1	1567	9124
1	1596	9125
1	1639	9126
1	1686	9127
1	1733	9128
1	1761	9129
1	1782	9130
1	1791	9131
1	1777	9132
1	1738	9133
1	1686	9134
1	1631	9135
1	1576	9136
1	1523	9137
1	1476	9138
1	1447	9139
1	1437	9140
1	1445	9141
1	1468	9142
1	1502	9143
1	1529	9144
1	1567	9145
1	1611	9146
1	1665	9147
1	1722	9148
1	1764	9149
1	1791	9150
1	1796	9151
1	1778	9152
1	1738	9153
1	1688	9154
1	1639	9155
1	1593	9156
1	1551	9157
1	1525	9158
1	1503	9159
1	1497	9160
1	1503	9161
1	1524	9162
1	1548	9163
1	1581	9164
1	1622	9165
1	1674	9166
1	1734	9167
1	1786	9168
1	1827	9169
1	1852	9170
1	1854	9171
1	1836	9172
1	1780	9173
1	1715	9174
1	1651	9175
1	1585	9176
1	1529	9177
1	1486	9178
1	1451	9179
1	1435	9180
1	1428	9181
1	1440	9182
1	1454	9183
1	1481	9184
1	1526	9185
1	1581	9186
1	1658	9187
1	1728	9188
1	1787	9189
1	1828	9190
1	1843	9191
1	1834	9192
1	1800	9193
1	1753	9194
1	1701	9195
1	1644	9196
1	1587	9197
1	1535	9198
1	1501	9199
1	1485	9200
1	1481	9201
1	1495	9202
1	1515	9203
1	1540	9204
1	1580	9205
1	1626	9206
1	1682	9207
1	1731	9208
1	1764	9209
1	1778	9210
1	1777	9211
1	1756	9212
1	1716	9213
1	1665	9214
1	1615	9215
1	1563	9216
1	1513	9217
1	1482	9218
1	1459	9219
1	1451	9220
1	1461	9221
1	1478	9222
1	1507	9223
1	1541	9224
1	1585	9225
1	1643	9226
1	1694	9227
1	1738	9228
1	1773	9229
1	1795	9230
1	1800	9231
1	1796	9232
1	1778	9233
1	1742	9234
1	1695	9235
1	1652	9236
1	1607	9237
1	1570	9238
1	1553	9239
1	1548	9240
1	1557	9241
1	1570	9242
1	1581	9243
1	1595	9244
1	1621	9245
1	1654	9246
1	1695	9247
1	1736	9248
1	1756	9249
1	1764	9250
1	1752	9251
1	1731	9252
1	1700	9253
1	1663	9254
1	1634	9255
1	1600	9256
1	1575	9257
1	1554	9258
1	1551	9259
1	1564	9260
1	1590	9261
1	1625	9262
1	1660	9263
1	1701	9264
1	1750	9265
1	1808	9266
1	1860	9267
1	1906	9268
1	1934	9269
1	1945	9270
1	1936	9271
1	1908	9272
1	1855	9273
1	1791	9274
1	1729	9275
1	1671	9276
1	1630	9277
1	1594	9278
1	1571	9279
1	1563	9280
1	1572	9281
1	1597	9282
1	1623	9283
1	1657	9284
1	1693	9285
1	1738	9286
1	1787	9287
1	1837	9288
1	1870	9289
1	1895	9290
1	1896	9291
1	1890	9292
1	1855	9293
1	1799	9294
1	1737	9295
1	1667	9296
1	1603	9297
1	1550	9298
1	1513	9299
1	1495	9300
1	1494	9301
1	1510	9302
1	1532	9303
1	1562	9304
1	1600	9305
1	1646	9306
1	1695	9307
1	1751	9308
1	1796	9309
1	1836	9310
1	1849	9311
1	1844	9312
1	1810	9313
1	1751	9314
1	1687	9315
1	1621	9316
1	1560	9317
1	1508	9318
1	1476	9319
1	1452	9320
1	1450	9321
1	1466	9322
1	1498	9323
1	1530	9324
1	1576	9325
1	1643	9326
1	1698	9327
1	1760	9328
1	1791	9329
1	1813	9330
1	1812	9331
1	1786	9332
1	1743	9333
1	1686	9334
1	1620	9335
1	1557	9336
1	1508	9337
1	1474	9338
1	1454	9339
1	1456	9340
1	1476	9341
1	1491	9342
1	1516	9343
1	1544	9344
1	1581	9345
1	1631	9346
1	1683	9347
1	1728	9348
1	1764	9349
1	1791	9350
1	1795	9351
1	1780	9352
1	1748	9353
1	1692	9354
1	1634	9355
1	1577	9356
1	1521	9357
1	1476	9358
1	1437	9359
1	1419	9360
1	1423	9361
1	1437	9362
1	1466	9363
1	1505	9364
1	1556	9365
1	1616	9366
1	1686	9367
1	1746	9368
1	1785	9369
1	1800	9370
1	1794	9371
1	1769	9372
1	1733	9373
1	1681	9374
1	1625	9375
1	1566	9376
1	1505	9377
1	1449	9378
1	1403	9379
1	1370	9380
1	1347	9381
1	1343	9382
1	1342	9383
1	1353	9384
1	1382	9385
1	1424	9386
1	1469	9387
1	1517	9388
1	1556	9389
1	1585	9390
1	1598	9391
1	1596	9392
1	1579	9393
1	1555	9394
1	1539	9395
1	1521	9396
1	1515	9397
1	1516	9398
1	1530	9399
1	1561	9400
1	1607	9401
1	1672	9402
1	1743	9403
1	1828	9404
1	1919	9405
1	2018	9406
1	2126	9407
1	2233	9408
1	2332	9409
1	2424	9410
1	2497	9411
1	2543	9412
1	2573	9413
1	2583	9414
1	2589	9415
1	2585	9416
1	2578	9417
1	2568	9418
1	2556	9419
1	2540	9420
1	2523	9421
1	2496	9422
1	2458	9423
1	2415	9424
1	2378	9425
1	2346	9426
1	2319	9427
1	2300	9428
1	2266	9429
1	2212	9430
1	2162	9431
1	2094	9432
1	2017	9433
1	1926	9434
1	1841	9435
1	1752	9436
1	1677	9437
1	1607	9438
1	1557	9439
1	1530	9440
1	1517	9441
1	1520	9442
1	1531	9443
1	1551	9444
1	1580	9445
1	1625	9446
1	1674	9447
1	1724	9448
1	1757	9449
1	1770	9450
1	1757	9451
1	1720	9452
1	1660	9453
1	1595	9454
1	1531	9455
1	1474	9456
1	1423	9457
1	1382	9458
1	1362	9459
1	1361	9460
1	1380	9461
1	1419	9462
1	1461	9463
1	1505	9464
1	1555	9465
1	1607	9466
1	1664	9467
1	1709	9468
1	1746	9469
1	1769	9470
1	1773	9471
1	1759	9472
1	1717	9473
1	1664	9474
1	1611	9475
1	1560	9476
1	1515	9477
1	1476	9478
1	1450	9479
1	1433	9480
1	1428	9481
1	1438	9482
1	1453	9483
1	1479	9484
1	1521	9485
1	1568	9486
1	1625	9487
1	1676	9488
1	1714	9489
1	1737	9490
1	1739	9491
1	1728	9492
1	1695	9493
1	1646	9494
1	1589	9495
1	1530	9496
1	1486	9497
1	1451	9498
1	1438	9499
1	1438	9500
1	1448	9501
1	1463	9502
1	1500	9503
1	1538	9504
1	1584	9505
1	1634	9506
1	1686	9507
1	1733	9508
1	1772	9509
1	1796	9510
1	1803	9511
1	1786	9512
1	1738	9513
1	1680	9514
1	1620	9515
1	1563	9516
1	1518	9517
1	1478	9518
1	1455	9519
1	1447	9520
1	1450	9521
1	1467	9522
1	1499	9523
1	1531	9524
1	1573	9525
1	1631	9526
1	1695	9527
1	1756	9528
1	1809	9529
1	1839	9530
1	1841	9531
1	1828	9532
1	1778	9533
1	1736	9534
1	1683	9535
1	1636	9536
1	1589	9537
1	1547	9538
1	1512	9539
1	1494	9540
1	1490	9541
1	1502	9542
1	1525	9543
1	1555	9544
1	1599	9545
1	1651	9546
1	1710	9547
1	1770	9548
1	1824	9549
1	1860	9550
1	1874	9551
1	1868	9552
1	1837	9553
1	1787	9554
1	1733	9555
1	1678	9556
1	1626	9557
1	1577	9558
1	1544	9559
1	1524	9560
1	1510	9561
1	1513	9562
1	1528	9563
1	1552	9564
1	1597	9565
1	1662	9566
1	1740	9567
1	1817	9568
1	1870	9569
1	1899	9570
1	1904	9571
1	1881	9572
1	1839	9573
1	1782	9574
1	1737	9575
1	1688	9576
1	1655	9577
1	1626	9578
1	1607	9579
1	1598	9580
1	1607	9581
1	1618	9582
1	1634	9583
1	1659	9584
1	1687	9585
1	1727	9586
1	1776	9587
1	1832	9588
1	1874	9589
1	1917	9590
1	1932	9591
1	1933	9592
1	1905	9593
1	1860	9594
1	1811	9595
1	1755	9596
1	1706	9597
1	1665	9598
1	1642	9599
1	1634	9600
1	1634	9601
1	1646	9602
1	1660	9603
1	1682	9604
1	1715	9605
1	1763	9606
1	1821	9607
1	1871	9608
1	1906	9609
1	1917	9610
1	1906	9611
1	1871	9612
1	1818	9613
1	1754	9614
1	1688	9615
1	1628	9616
1	1576	9617
1	1531	9618
1	1508	9619
1	1511	9620
1	1529	9621
1	1566	9622
1	1608	9623
1	1652	9624
1	1695	9625
1	1753	9626
1	1808	9627
1	1870	9628
1	1909	9629
1	1935	9630
1	1939	9631
1	1917	9632
1	1878	9633
1	1825	9634
1	1762	9635
1	1707	9636
1	1659	9637
1	1603	9638
1	1570	9639
1	1547	9640
1	1544	9641
1	1546	9642
1	1555	9643
1	1576	9644
1	1608	9645
1	1655	9646
1	1705	9647
1	1751	9648
1	1791	9649
1	1817	9650
1	1822	9651
1	1813	9652
1	1782	9653
1	1737	9654
1	1691	9655
1	1647	9656
1	1607	9657
1	1572	9658
1	1543	9659
1	1413	9700
1	1422	9701
1	1440	9702
1	1474	9703
1	1512	9704
1	1556	9705
1	1607	9706
1	1660	9707
1	1703	9708
1	1738	9709
1	1760	9710
1	1760	9711
1	1746	9712
1	1712	9713
1	1661	9714
1	1608	9715
1	1554	9716
1	1501	9717
1	1454	9718
1	1425	9719
1	1424	9700
1	1432	9701
1	1458	9702
1	1490	9703
1	1533	9704
1	1582	9705
1	1636	9706
1	1690	9707
1	1738	9708
1	1772	9709
1	1791	9710
1	1790	9711
1	1767	9712
1	1716	9713
1	1657	9714
1	1593	9715
1	1531	9716
1	1487	9717
1	1449	9718
1	1424	9719
1	1526	9660
1	1517	9661
1	1523	9662
1	1529	9663
1	1543	9664
1	1572	9665
1	1607	9666
1	1654	9667
1	1696	9668
1	1730	9669
1	1751	9670
1	1757	9671
1	1744	9672
1	1721	9673
1	1679	9674
1	1629	9675
1	1571	9676
1	1518	9677
1	1468	9678
1	1437	9679
1	1413	9720
1	1419	9721
1	1436	9722
1	1452	9723
1	1479	9724
1	1518	9725
1	1567	9726
1	1620	9727
1	1669	9728
1	1703	9729
1	1734	9730
1	1738	9731
1	1714	9732
1	1689	9733
1	1643	9734
1	1593	9735
1	1541	9736
1	1490	9737
1	1450	9738
1	1426	9739
1	1422	9740
1	1435	9741
1	1463	9742
1	1491	9743
1	1535	9744
1	1581	9745
1	1633	9746
1	1688	9747
1	1738	9748
1	1766	9749
1	1778	9750
1	1767	9751
1	1741	9752
1	1696	9753
1	1645	9754
1	1593	9755
1	1538	9756
1	1488	9757
1	1454	9758
1	1437	9759
1	1437	9760
1	1452	9761
1	1476	9762
1	1512	9763
1	1555	9764
1	1607	9765
1	1664	9766
1	1724	9767
1	1764	9768
1	1799	9769
1	1814	9770
1	1791	9771
1	1756	9772
1	1701	9773
1	1644	9774
1	1582	9775
1	1521	9776
1	1464	9777
1	1422	9778
1	1399	9779
1	1398	9780
1	1415	9781
1	1438	9782
1	1464	9783
1	1492	9784
1	1533	9785
1	1581	9786
1	1639	9787
1	1698	9788
1	1751	9789
1	1785	9790
1	1793	9791
1	1779	9792
1	1742	9793
1	1688	9794
1	1629	9795
1	1561	9796
1	1503	9797
1	1449	9798
1	1415	9799
1	1400	9800
1	1405	9801
1	1423	9802
1	1456	9803
1	1498	9804
1	1543	9805
1	1602	9806
1	1660	9807
1	1712	9808
1	1751	9809
1	1782	9810
1	1790	9811
1	1776	9812
1	1738	9813
1	1688	9814
1	1637	9815
1	1581	9816
1	1529	9817
1	1481	9818
1	1449	9819
1	1431	9820
1	1430	9821
1	1443	9822
1	1469	9823
1	1505	9824
1	1552	9825
1	1608	9826
1	1674	9827
1	1733	9828
1	1775	9829
1	1796	9830
1	1793	9831
1	1775	9832
1	1729	9833
1	1685	9834
1	1631	9835
1	1581	9836
1	1533	9837
1	1494	9838
1	1471	9839
1	1461	9840
1	1468	9841
1	1490	9842
1	1520	9843
1	1555	9844
1	1602	9845
1	1648	9846
1	1698	9847
1	1751	9848
1	1782	9849
1	1794	9850
1	1780	9851
1	1741	9852
1	1684	9853
1	1618	9854
1	1560	9855
1	1512	9856
1	1475	9857
1	1440	9858
1	1425	9859
1	1425	9860
1	1437	9861
1	1465	9862
1	1494	9863
1	1524	9864
1	1562	9865
1	1615	9866
1	1672	9867
1	1721	9868
1	1755	9869
1	1774	9870
1	1771	9871
1	1752	9872
1	1708	9873
1	1657	9874
1	1604	9875
1	1555	9876
1	1515	9877
1	1484	9878
1	1463	9879
1	1458	9880
1	1469	9881
1	1485	9882
1	1514	9883
1	1542	9884
1	1570	9885
1	1607	9886
1	1647	9887
1	1686	9888
1	1721	9889
1	1750	9890
1	1752	9891
1	1746	9892
1	1713	9893
1	1670	9894
1	1621	9895
1	1571	9896
1	1528	9897
1	1494	9898
1	1478	9899
1	1476	9900
1	1485	9901
1	1503	9902
1	1529	9903
1	1563	9904
1	1611	9905
1	1668	9906
1	1725	9907
1	1777	9908
1	1817	9909
1	1838	9910
1	1835	9911
1	1812	9912
1	1763	9913
1	1704	9914
1	1647	9915
1	1593	9916
1	1542	9917
1	1492	9918
1	1455	9919
1	1433	9920
1	1433	9921
1	1453	9922
1	1485	9923
1	1529	9924
1	1581	9925
1	1657	9926
1	1739	9927
1	1791	9928
1	1847	9929
1	1882	9930
1	1895	9931
1	1886	9932
1	1855	9933
1	1802	9934
1	1747	9935
1	1690	9936
1	1635	9937
1	1583	9938
1	1544	9939
1	1505	9960
1	1508	9961
1	1528	9962
1	1549	9963
1	1583	9964
1	1634	9965
1	1688	9966
1	1751	9967
1	1795	9968
1	1834	9969
1	1852	9970
1	1848	9971
1	1830	9972
1	1789	9973
1	1737	9974
1	1674	9975
1	1607	9976
1	1547	9977
1	1489	9978
1	1448	9979
1	1424	9980
1	1427	9981
1	1451	9982
1	1482	9983
1	1521	9984
1	1567	9985
1	1618	9986
1	1674	9987
1	1724	9988
1	1763	9989
1	1787	9990
1	1781	9991
1	1753	9992
1	1697	9993
1	1634	9994
1	1571	9995
1	1515	9996
1	1467	9997
1	1424	9998
1	1397	9999
1	1520	9960
1	1520	9961
1	1531	9962
1	1557	9963
1	1592	9964
1	1639	9965
1	1703	9966
1	1776	9967
1	1845	9968
1	1903	9969
1	1935	9970
1	1936	9971
1	1912	9972
1	1872	9973
1	1812	9974
1	1741	9975
1	1675	9976
1	1610	9977
1	1559	9978
1	1525	9979
1	1379	10000
1	1384	10001
1	1406	10002
1	1434	10003
1	1469	10004
1	1518	10005
1	1581	10006
1	1646	10007
1	1699	10008
1	1743	10009
1	1770	10010
1	1775	10011
1	1764	10012
1	1739	10013
1	1697	10014
1	1645	10015
1	1592	10016
1	1539	10017
1	1490	10018
1	1454	10019
1	1436	10020
1	1432	10021
1	1445	10022
1	1467	10023
1	1504	10024
1	1559	10025
1	1620	10026
1	1681	10027
1	1735	10028
1	1764	10029
1	1785	10030
1	1791	10031
1	1769	10032
1	1736	10033
1	1685	10034
1	1625	10035
1	1567	10036
1	1508	10037
1	1456	10038
1	1425	10039
1	1413	10040
1	1414	10041
1	1431	10042
1	1465	10043
1	1498	10044
1	1534	10045
1	1576	10046
1	1619	10047
1	1660	10048
1	1689	10049
1	1704	10050
1	1694	10051
1	1660	10052
1	1600	10053
1	1526	10054
1	1451	10055
1	1382	10056
1	1318	10057
1	1267	10058
1	1228	10059
1	1214	10060
1	1217	10061
1	1241	10062
1	1282	10063
1	1334	10064
1	1407	10065
1	1490	10066
1	1589	10067
1	1679	10068
1	1764	10069
1	1832	10070
1	1874	10071
1	1899	10072
1	1918	10073
1	1921	10074
1	1922	10075
1	1924	10076
1	1929	10077
1	1948	10078
1	1982	10079
1	2038	10080
1	2114	10081
1	2204	10082
1	2322	10083
1	2443	10084
1	2558	10085
1	2678	10086
1	2798	10087
1	2891	10088
1	2952	10089
1	2972	10090
1	2946	10091
1	2876	10092
1	2773	10093
1	2646	10094
1	2519	10095
1	2389	10096
1	2262	10097
1	2133	10098
1	2039	10099
1	1962	10100
1	1899	10101
1	1848	10102
1	1819	10103
1	1791	10104
1	1780	10105
1	1791	10106
1	1821	10107
1	1845	10108
1	1862	10109
1	1869	10110
1	1857	10111
1	1834	10112
1	1779	10113
1	1721	10114
1	1664	10115
1	1607	10116
1	1557	10117
1	1506	10118
1	1455	10119
1	1419	10120
1	1384	10121
1	1369	10122
1	1368	10123
1	1375	10124
1	1402	10125
1	1442	10126
1	1490	10127
1	1537	10128
1	1573	10129
1	1593	10130
1	1594	10131
1	1586	10132
1	1566	10133
1	1538	10134
1	1505	10135
1	1487	10136
1	1463	10137
1	1445	10138
1	1433	10139
1	1430	10140
1	1440	10141
1	1456	10142
1	1476	10143
1	1512	10144
1	1557	10145
1	1610	10146
1	1669	10147
1	1720	10148
1	1754	10149
