#Date:= 2024-10-01T15:26:32.815811
#Sampling Rate(Hz):= 1000
#Labels:= LOD	ECG	TS
1	128	20
1	1585	21
1	1557	22
1	1535	23
1	1517	24
1	1504	25
1	1499	26
1	1499	27
1	1503	28
1	1520	29
1	1531	30
1	1553	31
1	1580	32
1	1610	33
1	1647	34
1	1686	35
1	1712	36
1	1717	37
1	1708	38
1	1677	39
1	1620	60
1	1589	61
1	1561	62
1	1540	63
1	1528	64
1	1529	65
1	1531	66
1	1543	67
1	1555	68
1	1571	69
1	1589	70
1	1607	71
1	1631	72
1	1652	73
1	1672	74
1	1686	75
1	1697	76
1	1703	77
1	1705	78
1	1699	79
1	1634	40
1	1589	41
1	1551	42
1	1513	43
1	1482	44
1	1456	45
1	1440	46
1	1435	47
1	1436	48
1	1449	49
1	1476	50
1	1507	51
1	1550	52
1	1589	53
1	1621	54
1	1643	55
1	1659	56
1	1664	57
1	1661	58
1	1652	59
1	1696	80
1	1692	81
1	1700	82
1	1718	83
1	1751	84
1	1791	85
1	1841	86
1	1890	87
1	1947	88
1	1996	89
1	2026	90
1	2058	91
1	2088	92
1	2110	93
1	2123	94
1	2133	95
1	2129	96
1	2106	97
1	2081	98
1	2052	99
1	2013	100
1	1965	101
1	1912	102
1	1855	103
1	1791	104
1	1729	105
1	1677	106
1	1629	107
1	1587	108
1	1555	109
1	1540	110
1	1529	111
1	1535	112
1	1551	113
1	1574	114
1	1595	115
1	1611	116
1	1620	117
1	1618	118
1	1605	119
1	1713	140
1	1675	141
1	1643	142
1	1620	143
1	1594	144
1	1564	145
1	1541	146
1	1524	147
1	1512	148
1	1503	149
1	1499	150
1	1500	151
1	1517	152
1	1544	153
1	1580	154
1	1625	155
1	1660	156
1	1680	157
1	1686	158
1	1680	159
1	1580	120
1	1553	121
1	1529	122
1	1512	123
1	1503	124
1	1499	125
1	1505	126
1	1518	127
1	1529	128
1	1557	129
1	1584	130
1	1616	131
1	1659	132
1	1699	133
1	1738	134
1	1759	135
1	1772	136
1	1778	137
1	1769	138
1	1744	139
1	1652	160
1	1620	161
1	1585	162
1	1559	163
1	1544	164
1	1531	165
1	1528	166
1	1529	167
1	1529	168
1	1540	169
1	1566	170
1	1592	171
1	1634	172
1	1682	173
1	1724	174
1	1757	175
1	1779	176
1	1790	177
1	1777	178
1	1751	179
1	1708	180
1	1660	181
1	1613	182
1	1572	183
1	1536	184
1	1526	185
1	1514	186
1	1515	187
1	1512	188
1	1512	189
1	1518	190
1	1542	191
1	1582	192
1	1633	193
1	1674	194
1	1716	195
1	1751	196
1	1769	197
1	1770	198
1	1755	199
1	1737	200
1	1697	201
1	1658	202
1	1622	203
1	1593	204
1	1571	205
1	1556	206
1	1553	207
1	1555	208
1	1559	209
1	1564	210
1	1581	211
1	1607	212
1	1641	213
1	1676	214
1	1724	215
1	1751	216
1	1766	217
1	1772	218
1	1764	219
1	1751	220
1	1726	221
1	1699	222
1	1667	223
1	1645	224
1	1632	225
1	1629	226
1	1634	227
1	1634	228
1	1634	229
1	1638	230
1	1651	231
1	1672	232
1	1691	233
1	1719	234
1	1742	235
1	1762	236
1	1769	237
1	1765	238
1	1751	239
1	1716	240
1	1682	241
1	1648	242
1	1613	243
1	1581	244
1	1573	245
1	1566	246
1	1568	247
1	1574	248
1	1584	249
1	1602	250
1	1625	251
1	1657	252
1	1692	253
1	1734	254
1	1764	255
1	1790	256
1	1800	257
1	1798	258
1	1773	259
1	1748	260
1	1707	261
1	1669	262
1	1636	263
1	1612	264
1	1601	265
1	1599	266
1	1607	267
1	1621	268
1	1639	269
1	1658	270
1	1682	271
1	1713	272
1	1755	273
1	1796	274
1	1856	275
1	1890	276
1	1909	277
1	1917	278
1	1908	279
1	1882	280
1	1851	281
1	1818	282
1	1785	283
1	1761	284
1	1738	285
1	1729	286
1	1725	287
1	1726	288
1	1725	289
1	1746	290
1	1760	291
1	1790	292
1	1825	293
1	1856	294
1	1895	295
1	1922	296
1	1935	297
1	1935	298
1	1921	299
1	1884	300
1	1854	301
1	1821	302
1	1791	303
1	1757	304
1	1747	305
1	1726	306
1	1712	307
1	1710	308
1	1712	309
1	1724	310
1	1739	311
1	1764	312
1	1791	313
1	1831	314
1	1856	315
1	1877	316
1	1883	317
1	1873	318
1	1847	319
1	1832	320
1	1798	321
1	1769	322
1	1738	323
1	1713	324
1	1683	325
1	1663	326
1	1656	327
1	1656	328
1	1661	329
1	1672	330
1	1682	331
1	1699	332
1	1724	333
1	1746	334
1	1776	335
1	1790	336
1	1791	337
1	1783	338
1	1773	339
1	1740	340
1	1703	341
1	1660	342
1	1616	343
1	1581	344
1	1553	345
1	1546	346
1	1554	347
1	1567	348
1	1580	349
1	1607	350
1	1620	351
1	1638	352
1	1664	353
1	1697	354
1	1725	355
1	1742	356
1	1752	357
1	1746	358
1	1726	359
1	1685	360
1	1638	361
1	1596	362
1	1554	363
1	1511	364
1	1499	365
1	1483	366
1	1479	367
1	1489	368
1	1503	369
1	1526	370
1	1553	371
1	1589	372
1	1631	373
1	1670	374
1	1697	375
1	1714	376
1	1717	377
1	1708	378
1	1671	379
1	1645	380
1	1600	381
1	1560	382
1	1528	383
1	1497	384
1	1476	385
1	1461	386
1	1459	387
1	1464	388
1	1476	389
1	1486	390
1	1506	391
1	1538	392
1	1572	393
1	1598	394
1	1643	395
1	1669	396
1	1686	397
1	1687	398
1	1674	399
1	1646	400
1	1607	401
1	1577	402
1	1545	403
1	1517	404
1	1493	405
1	1476	406
1	1467	407
1	1459	408
1	1448	409
1	1456	410
1	1459	411
1	1476	412
1	1503	413
1	1539	414
1	1577	415
1	1615	416
1	1647	417
1	1664	418
1	1669	419
1	1700	460
1	1657	461
1	1605	462
1	1554	463
1	1510	464
1	1467	465
1	1438	466
1	1424	467
1	1418	468
1	1418	469
1	1441	470
1	1466	471
1	1502	472
1	1540	473
1	1579	474
1	1610	475
1	1634	476
1	1647	477
1	1652	478
1	1644	479
1	1634	440
1	1594	441
1	1553	442
1	1518	443
1	1481	444
1	1455	445
1	1443	446
1	1445	447
1	1453	448
1	1471	449
1	1488	450
1	1517	451
1	1555	452
1	1598	453
1	1635	454
1	1688	455
1	1719	456
1	1738	457
1	1741	458
1	1730	459
1	1652	420
1	1628	421
1	1602	422
1	1574	423
1	1547	424
1	1523	425
1	1510	426
1	1503	427
1	1508	428
1	1529	429
1	1546	430
1	1569	431
1	1596	432
1	1626	433
1	1660	434
1	1683	435
1	1698	436
1	1700	437
1	1687	438
1	1661	439
1	1620	480
1	1597	481
1	1584	482
1	1575	483
1	1572	484
1	1586	485
1	1593	486
1	1607	487
1	1625	488
1	1642	489
1	1656	490
1	1665	491
1	1682	492
1	1703	493
1	1719	494
1	1738	495
1	1746	496
1	1746	497
1	1733	498
1	1706	499
1	1674	500
1	1631	501
1	1587	502
1	1554	503
1	1530	504
1	1521	505
1	1517	506
1	1526	507
1	1536	508
1	1555	509
1	1574	510
1	1594	511
1	1625	512
1	1658	513
1	1686	514
1	1716	515
1	1726	516
1	1725	517
1	1714	518
1	1697	519
1	1672	520
1	1644	521
1	1625	522
1	1598	523
1	1581	524
1	1565	525
1	1553	526
1	1544	527
1	1537	528
1	1530	529
1	1531	530
1	1537	531
1	1555	532
1	1581	533
1	1620	534
1	1652	535
1	1681	536
1	1697	537
1	1698	538
1	1688	539
1	1660	540
1	1623	541
1	1587	542
1	1550	543
1	1517	544
1	1502	545
1	1490	546
1	1492	547
1	1503	548
1	1529	549
1	1556	550
1	1592	551
1	1634	552
1	1682	553
1	1724	554
1	1750	555
1	1764	556
1	1764	557
1	1750	558
1	1716	559
1	1687	560
1	1643	561
1	1606	562
1	1578	563
1	1553	564
1	1536	565
1	1528	566
1	1521	567
1	1523	568
1	1526	569
1	1525	570
1	1530	571
1	1553	572
1	1580	573
1	1607	574
1	1647	575
1	1674	576
1	1691	577
1	1700	578
1	1697	579
1	1679	580
1	1647	581
1	1615	582
1	1581	583
1	1553	584
1	1531	585
1	1533	586
1	1553	587
1	1580	588
1	1605	589
1	1644	590
1	1678	591
1	1724	592
1	1770	593
1	1817	594
1	1868	595
1	1899	596
1	1917	597
1	1914	598
1	1891	599
1	1843	600
1	1785	601
1	1727	602
1	1675	603
1	1632	604
1	1607	605
1	1581	606
1	1566	607
1	1559	608
1	1562	609
1	1576	610
1	1593	611
1	1626	612
1	1665	613
1	1710	614
1	1742	615
1	1764	616
1	1776	617
1	1762	618
1	1733	619
1	1697	620
1	1647	621
1	1605	622
1	1558	623
1	1529	624
1	1490	625
1	1469	626
1	1463	627
1	1467	628
1	1480	629
1	1497	630
1	1513	631
1	1541	632
1	1580	633
1	1622	634
1	1670	635
1	1707	636
1	1733	637
1	1738	638
1	1738	639
1	1584	660
1	1551	661
1	1524	662
1	1500	663
1	1479	664
1	1474	665
1	1472	666
1	1482	667
1	1505	668
1	1538	669
1	1571	670
1	1606	671
1	1648	672
1	1694	673
1	1740	674
1	1769	675
1	1793	676
1	1816	677
1	1817	678
1	1800	679
1	1715	640
1	1685	641
1	1651	642
1	1619	643
1	1589	644
1	1559	645
1	1544	646
1	1533	647
1	1526	648
1	1518	649
1	1519	650
1	1518	651
1	1530	652
1	1552	653
1	1580	654
1	1607	655
1	1629	656
1	1637	657
1	1635	658
1	1620	659
1	1782	680
1	1746	681
1	1710	682
1	1673	683
1	1638	684
1	1607	685
1	1584	686
1	1567	687
1	1555	688
1	1550	689
1	1546	690
1	1553	691
1	1573	692
1	1599	693
1	1625	694
1	1672	695
1	1692	696
1	1697	697
1	1701	698
1	1688	699
1	1660	700
1	1623	701
1	1589	702
1	1555	703
1	1530	704
1	1508	705
1	1499	706
1	1503	707
1	1521	708
1	1541	709
1	1572	710
1	1611	711
1	1664	712
1	1723	713
1	1785	714
1	1845	715
1	1901	716
1	1958	717
1	2003	718
1	2037	719
1	2044	720
1	2050	721
1	2051	722
1	2051	723
1	2047	724
1	2041	725
1	2039	726
1	2025	727
1	2003	728
1	1991	729
1	1983	730
1	1974	731
1	1974	732
1	1976	733
1	1986	734
1	1982	735
1	1974	736
1	1949	737
1	1908	738
1	1856	739
1	1787	740
1	1719	741
1	1660	742
1	1608	743
1	1556	744
1	1520	745
1	1501	746
1	1493	747
1	1495	748
1	1505	749
1	1521	750
1	1542	751
1	1580	752
1	1626	753
1	1683	754
1	1739	755
1	1777	756
1	1799	757
1	1800	758
1	1783	759
1	1660	800
1	1631	801
1	1606	802
1	1582	803
1	1564	804
1	1553	805
1	1544	806
1	1548	807
1	1556	808
1	1575	809
1	1586	810
1	1607	811
1	1638	812
1	1672	813
1	1712	814
1	1751	815
1	1773	816
1	1782	817
1	1782	818
1	1775	819
1	1700	780
1	1681	781
1	1661	782
1	1647	783
1	1634	784
1	1629	785
1	1620	786
1	1615	787
1	1612	788
1	1616	789
1	1620	790
1	1626	791
1	1636	792
1	1658	793
1	1683	794
1	1698	795
1	1710	796
1	1711	797
1	1700	798
1	1683	799
1	1749	760
1	1704	761
1	1662	762
1	1625	763
1	1591	764
1	1555	765
1	1529	766
1	1514	767
1	1503	768
1	1504	769
1	1516	770
1	1529	771
1	1551	772
1	1582	773
1	1618	774
1	1656	775
1	1687	776
1	1710	777
1	1717	778
1	1716	779
1	1761	820
1	1733	821
1	1704	822
1	1669	823
1	1641	824
1	1620	825
1	1607	826
1	1599	827
1	1592	828
1	1596	829
1	1605	830
1	1612	831
1	1633	832
1	1657	833
1	1682	834
1	1694	835
1	1692	836
1	1685	837
1	1669	838
1	1648	839
1	1616	840
1	1581	841
1	1555	842
1	1539	843
1	1537	844
1	1546	845
1	1561	846
1	1586	847
1	1613	848
1	1647	849
1	1679	850
1	1711	851
1	1751	852
1	1793	853
1	1843	854
1	1868	855
1	1891	856
1	1901	857
1	1899	858
1	1892	859
1	1705	880
1	1686	881
1	1665	882
1	1645	883
1	1623	884
1	1599	885
1	1584	886
1	1581	887
1	1587	888
1	1598	889
1	1623	890
1	1648	891
1	1692	892
1	1744	893
1	1798	894
1	1854	895
1	1895	896
1	1922	897
1	1935	898
1	1938	899
1	1878	860
1	1850	861
1	1816	862
1	1775	863
1	1739	864
1	1704	865
1	1678	866
1	1661	867
1	1649	868
1	1634	869
1	1610	870
1	1595	871
1	1594	872
1	1607	873
1	1634	874
1	1665	875
1	1699	876
1	1716	877
1	1724	878
1	1718	879
1	1916	900
1	1885	901
1	1846	902
1	1813	903
1	1778	904
1	1762	905
1	1751	906
1	1747	907
1	1747	908
1	1750	909
1	1757	910
1	1764	911
1	1790	912
1	1818	913
1	1847	914
1	1865	915
1	1878	916
1	1886	917
1	1884	918
1	1877	919
1	1864	920
1	1842	921
1	1818	922
1	1787	923
1	1764	924
1	1734	925
1	1713	926
1	1700	927
1	1697	928
1	1702	929
1	1713	930
1	1728	931
1	1751	932
1	1782	933
1	1821	934
1	1849	935
1	1869	936
1	1883	937
1	1891	938
1	1895	939
1	1879	940
1	1855	941
1	1829	942
1	1799	943
1	1776	944
1	1752	945
1	1738	946
1	1728	947
1	1725	948
1	1731	949
1	1747	950
1	1757	951
1	1783	952
1	1817	953
1	1854	954
1	1878	955
1	1893	956
1	1895	957
1	1881	958
1	1856	959
1	1817	960
1	1769	961
1	1732	962
1	1701	963
1	1682	964
1	1671	965
1	1664	966
1	1664	967
1	1671	968
1	1684	969
1	1697	970
1	1712	971
1	1738	972
1	1768	973
1	1801	974
1	1824	975
1	1841	976
1	1847	977
1	1842	978
1	1823	979
1	1793	980
1	1752	981
1	1714	982
1	1680	983
1	1644	984
1	1616	985
1	1595	986
1	1584	987
1	1584	988
1	1585	989
1	1584	990
1	1591	991
1	1611	992
1	1643	993
1	1682	994
1	1721	995
1	1753	996
1	1773	997
1	1777	998
1	1762	999
1	1736	1000
1	1696	1001
1	1660	1002
1	1625	1003
1	1595	1004
1	1566	1005
1	1549	1006
1	1544	1007
1	1544	1008
1	1555	1009
1	1572	1010
1	1585	1011
1	1607	1012
1	1631	1013
1	1655	1014
1	1675	1015
1	1690	1016
1	1697	1017
1	1691	1018
1	1684	1019
1	1634	1040
1	1607	1041
1	1584	1042
1	1568	1043
1	1550	1044
1	1534	1045
1	1531	1046
1	1534	1047
1	1542	1048
1	1555	1049
1	1561	1050
1	1573	1051
1	1593	1052
1	1618	1053
1	1647	1054
1	1681	1055
1	1697	1056
1	1708	1057
1	1703	1058
1	1686	1059
1	1657	1020
1	1630	1021
1	1603	1022
1	1577	1023
1	1550	1024
1	1535	1025
1	1517	1026
1	1502	1027
1	1499	1028
1	1490	1029
1	1488	1030
1	1491	1031
1	1507	1032
1	1530	1033
1	1566	1034
1	1602	1035
1	1633	1036
1	1649	1037
1	1656	1038
1	1651	1039
1	1652	1060
1	1610	1061
1	1576	1062
1	1553	1063
1	1544	1064
1	1543	1065
1	1551	1066
1	1555	1067
1	1554	1068
1	1557	1069
1	1569	1070
1	1580	1071
1	1598	1072
1	1622	1073
1	1651	1074
1	1676	1075
1	1698	1076
1	1710	1077
1	1710	1078
1	1697	1079
1	1662	1100
1	1627	1101
1	1593	1102
1	1563	1103
1	1541	1104
1	1529	1105
1	1507	1106
1	1494	1107
1	1484	1108
1	1481	1109
1	1489	1110
1	1503	1111
1	1526	1112
1	1554	1113
1	1590	1114
1	1620	1115
1	1656	1116
1	1684	1117
1	1701	1118
1	1708	1119
1	1701	1100
1	1679	1101
1	1652	1102
1	1625	1103
1	1599	1104
1	1581	1105
1	1567	1106
1	1566	1107
1	1572	1108
1	1585	1109
1	1599	1110
1	1620	1111
1	1651	1112
1	1687	1113
1	1724	1114
1	1760	1115
1	1775	1116
1	1777	1117
1	1764	1118
1	1743	1119
1	1701	1140
1	1674	1141
1	1643	1142
1	1611	1143
1	1582	1144
1	1564	1145
1	1542	1146
1	1529	1147
1	1523	1148
1	1528	1149
1	1534	1150
1	1539	1151
1	1549	1152
1	1566	1153
1	1597	1154
1	1620	1155
1	1647	1156
1	1671	1157
1	1688	1158
1	1698	1159
1	1716	1120
1	1679	1121
1	1647	1122
1	1607	1123
1	1574	1124
1	1544	1125
1	1520	1126
1	1503	1127
1	1494	1128
1	1497	1129
1	1508	1130
1	1524	1131
1	1546	1132
1	1580	1133
1	1625	1134
1	1660	1135
1	1692	1136
1	1712	1137
1	1723	1138
1	1723	1139
1	1764	1180
1	1714	1181
1	1665	1182
1	1619	1183
1	1574	1184
1	1529	1185
1	1503	1186
1	1484	1187
1	1476	1188
1	1474	1189
1	1479	1190
1	1489	1191
1	1507	1192
1	1540	1193
1	1578	1194
1	1616	1195
1	1660	1196
1	1694	1197
1	1712	1198
1	1715	1199
1	1691	1160
1	1672	1161
1	1647	1162
1	1625	1163
1	1606	1164
1	1592	1165
1	1585	1166
1	1587	1167
1	1593	1168
1	1598	1169
1	1599	1170
1	1607	1171
1	1634	1172
1	1670	1173
1	1710	1174
1	1751	1175
1	1783	1176
1	1809	1177
1	1811	1178
1	1793	1179
1	1697	1200
1	1670	1201
1	1642	1202
1	1616	1203
1	1597	1204
1	1581	1205
1	1560	1206
1	1547	1207
1	1541	1208
1	1539	1209
1	1543	1210
1	1553	1211
1	1574	1212
1	1605	1213
1	1647	1214
1	1687	1215
1	1726	1216
1	1753	1217
1	1764	1218
1	1763	1219
1	1747	1220
1	1712	1221
1	1675	1222
1	1634	1223
1	1593	1224
1	1556	1225
1	1530	1226
1	1508	1227
1	1501	1228
1	1501	1229
1	1503	1230
1	1515	1231
1	1535	1232
1	1561	1233
1	1596	1234
1	1634	1235
1	1670	1236
1	1706	1237
1	1726	1238
1	1742	1239
1	1742	1280
1	1717	1281
1	1688	1282
1	1660	1283
1	1629	1284
1	1604	1285
1	1580	1286
1	1556	1287
1	1548	1288
1	1548	1289
1	1553	1290
1	1561	1291
1	1581	1292
1	1607	1293
1	1644	1294
1	1687	1295
1	1716	1296
1	1740	1297
1	1750	1298
1	1746	1299
1	1788	1260
1	1747	1261
1	1701	1262
1	1652	1263
1	1602	1264
1	1566	1265
1	1539	1266
1	1526	1267
1	1518	1268
1	1517	1269
1	1521	1270
1	1530	1271
1	1553	1272
1	1585	1273
1	1629	1274
1	1671	1275
1	1710	1276
1	1739	1277
1	1754	1278
1	1755	1279
1	1738	1240
1	1721	1241
1	1702	1242
1	1684	1243
1	1661	1244
1	1642	1245
1	1628	1246
1	1626	1247
1	1639	1248
1	1662	1249
1	1688	1250
1	1702	1251
1	1715	1252
1	1736	1253
1	1761	1254
1	1790	1255
1	1817	1256
1	1832	1257
1	1834	1258
1	1820	1259
1	1724	1300
1	1688	1301
1	1646	1302
1	1606	1303
1	1568	1304
1	1531	1305
1	1508	1306
1	1494	1307
1	1489	1308
1	1495	1309
1	1517	1310
1	1541	1311
1	1582	1312
1	1634	1313
1	1698	1314
1	1760	1315
1	1817	1316
1	1857	1317
1	1873	1318
1	1870	1319
1	1843	1320
1	1791	1321
1	1737	1322
1	1674	1323
1	1616	1324
1	1578	1325
1	1534	1326
1	1500	1327
1	1484	1328
1	1472	1329
1	1463	1330
1	1462	1331
1	1474	1332
1	1494	1333
1	1528	1334
1	1562	1335
1	1603	1336
1	1634	1337
1	1644	1338
1	1643	1339
1	1623	1340
1	1589	1341
1	1555	1342
1	1530	1343
1	1521	1344
1	1512	1345
1	1511	1346
1	1517	1347
1	1529	1348
1	1542	1349
1	1555	1350
1	1575	1351
1	1607	1352
1	1652	1353
1	1698	1354
1	1746	1355
1	1778	1356
1	1795	1357
1	1795	1358
1	1777	1359
1	1751	1360
1	1711	1361
1	1670	1362
1	1634	1363
1	1594	1364
1	1556	1365
1	1538	1366
1	1532	1367
1	1541	1368
1	1557	1369
1	1593	1370
1	1637	1371
1	1700	1372
1	1775	1373
1	1865	1374
1	1950	1375
1	2030	1376
1	2102	1377
1	2156	1378
1	2191	1379
1	1776	1400
1	1716	1401
1	1660	1402
1	1612	1403
1	1577	1404
1	1548	1405
1	1528	1406
1	1518	1407
1	1516	1408
1	1521	1409
1	1524	1410
1	1533	1411
1	1557	1412
1	1597	1413
1	1641	1414
1	1686	1415
1	1716	1416
1	1736	1417
1	1731	1418
1	1712	1419
1	2201	1380
1	2197	1381
1	2188	1382
1	2173	1383
1	2157	1384
1	2137	1385
1	2106	1386
1	2073	1387
1	2043	1388
1	2012	1389
1	1983	1390
1	1953	1391
1	1937	1392
1	1930	1393
1	1923	1394
1	1909	1395
1	1895	1396
1	1881	1397
1	1857	1398
1	1823	1399
1	1683	1420
1	1643	1421
1	1606	1422
1	1571	1423
1	1544	1424
1	1527	1425
1	1514	1426
1	1508	1427
1	1508	1428
1	1517	1429
1	1532	1430
1	1545	1431
1	1569	1432
1	1603	1433
1	1652	1434
1	1697	1435
1	1736	1436
1	1765	1437
1	1787	1438
1	1792	1439
1	1778	1440
1	1751	1441
1	1724	1442
1	1688	1443
1	1656	1444
1	1633	1445
1	1608	1446
1	1592	1447
1	1582	1448
1	1583	1449
1	1590	1450
1	1600	1451
1	1629	1452
1	1665	1453
1	1716	1454
1	1765	1455
1	1820	1456
1	1859	1457
1	1871	1458
1	1867	1459
1	1843	1460
1	1795	1461
1	1749	1462
1	1701	1463
1	1652	1464
1	1607	1465
1	1569	1466
1	1542	1467
1	1529	1468
1	1523	1469
1	1515	1470
1	1515	1471
1	1523	1472
1	1542	1473
1	1572	1474
1	1610	1475
1	1643	1476
1	1671	1477
1	1686	1478
1	1690	1479
1	1679	1480
1	1652	1481
1	1620	1482
1	1595	1483
1	1575	1484
1	1560	1485
1	1557	1486
1	1564	1487
1	1569	1488
1	1580	1489
1	1595	1490
1	1611	1491
1	1638	1492
1	1672	1493
1	1707	1494
1	1738	1495
1	1764	1496
1	1777	1497
1	1777	1498
1	1766	1499
1	1736	1500
1	1697	1501
1	1657	1502
1	1621	1503
1	1592	1504
1	1582	1505
1	1577	1506
1	1580	1507
1	1587	1508
1	1604	1509
1	1624	1510
1	1647	1511
1	1683	1512
1	1728	1513
1	1773	1514
1	1808	1515
1	1830	1516
1	1839	1517
1	1829	1518
1	1801	1519
1	1772	1520
1	1722	1521
1	1675	1522
1	1637	1523
1	1606	1524
1	1580	1525
1	1563	1526
1	1548	1527
1	1536	1528
1	1530	1529
1	1537	1530
1	1555	1531
1	1581	1532
1	1622	1533
1	1668	1534
1	1715	1535
1	1757	1536
1	1788	1537
1	1793	1538
1	1796	1539
1	1777	1540
1	1748	1541
1	1715	1542
1	1692	1543
1	1674	1544
1	1657	1545
1	1646	1546
1	1639	1547
1	1647	1548
1	1659	1549
1	1682	1550
1	1695	1551
1	1712	1552
1	1738	1553
1	1764	1554
1	1793	1555
1	1824	1556
1	1841	1557
1	1843	1558
1	1829	1559
1	1895	1600
1	1856	1601
1	1812	1602
1	1760	1603
1	1716	1604
1	1677	1605
1	1652	1606
1	1642	1607
1	1646	1608
1	1658	1609
1	1675	1610
1	1687	1611
1	1712	1612
1	1747	1613
1	1790	1614
1	1835	1615
1	1868	1616
1	1890	1617
1	1895	1618
1	1886	1619
1	1793	1560
1	1764	1561
1	1738	1562
1	1719	1563
1	1710	1564
1	1708	1565
1	1703	1566
1	1705	1567
1	1713	1568
1	1727	1569
1	1739	1570
1	1752	1571
1	1769	1572
1	1790	1573
1	1816	1574
1	1827	1575
1	1844	1576
1	1859	1577
1	1863	1578
1	1860	1579
1	1852	1580
1	1830	1581
1	1808	1582
1	1789	1583
1	1777	1584
1	1772	1585
1	1767	1586
1	1764	1587
1	1764	1588
1	1767	1589
1	1772	1590
1	1786	1591
1	1814	1592
1	1842	1593
1	1871	1594
1	1905	1595
1	1927	1596
1	1942	1597
1	1936	1598
1	1922	1599
1	1864	1620
1	1836	1621
1	1796	1622
1	1760	1623
1	1719	1624
1	1710	1625
1	1687	1626
1	1670	1627
1	1674	1628
1	1677	1629
1	1688	1630
1	1703	1631
1	1725	1632
1	1755	1633
1	1786	1634
1	1803	1635
1	1817	1636
1	1823	1637
1	1818	1638
1	1803	1639
1	1773	1640
1	1736	1641
1	1693	1642
1	1661	1643
1	1629	1644
1	1597	1645
1	1580	1646
1	1562	1647
1	1548	1648
1	1538	1649
1	1530	1650
1	1535	1651
1	1546	1652
1	1569	1653
1	1602	1654
1	1638	1655
1	1662	1656
1	1674	1657
1	1674	1658
1	1664	1659
1	1623	1680
1	1567	1681
1	1516	1682
1	1472	1683
1	1438	1684
1	1422	1685
1	1413	1686
1	1418	1687
1	1435	1688
1	1457	1689
1	1485	1690
1	1515	1691
1	1544	1692
1	1580	1693
1	1622	1694
1	1661	1695
1	1694	1696
1	1716	1697
1	1729	1698
1	1727	1699
1	1645	1660
1	1613	1661
1	1587	1662
1	1562	1663
1	1541	1664
1	1518	1665
1	1505	1666
1	1510	1667
1	1517	1668
1	1530	1669
1	1556	1670
1	1580	1671
1	1607	1672
1	1639	1673
1	1677	1674
1	1705	1675
1	1718	1676
1	1716	1677
1	1702	1678
1	1672	1679
1	1712	1700
1	1679	1701
1	1637	1702
1	1594	1703
1	1552	1704
1	1517	1705
1	1495	1706
1	1485	1707
1	1488	1708
1	1494	1709
1	1497	1710
1	1503	1711
1	1517	1712
1	1544	1713
1	1573	1714
1	1607	1715
1	1626	1716
1	1636	1717
1	1634	1718
1	1622	1719
1	1600	1720
1	1569	1721
1	1533	1722
1	1496	1723
1	1467	1724
1	1450	1725
1	1441	1726
1	1440	1727
1	1445	1728
1	1461	1729
1	1481	1730
1	1509	1731
1	1556	1732
1	1593	1733
1	1641	1734
1	1672	1735
1	1695	1736
1	1710	1737
1	1719	1738
1	1716	1739
1	1698	1740
1	1673	1741
1	1642	1742
1	1607	1743
1	1574	1744
1	1548	1745
1	1523	1746
1	1500	1747
1	1489	1748
1	1481	1749
1	1481	1750
1	1490	1751
1	1517	1752
1	1555	1753
1	1606	1754
1	1653	1755
1	1694	1756
1	1721	1757
1	1730	1758
1	1728	1759
1	1719	1760
1	1692	1761
1	1657	1762
1	1618	1763
1	1584	1764
1	1554	1765
1	1526	1766
1	1501	1767
1	1485	1768
1	1478	1769
1	1476	1770
1	1485	1771
1	1505	1772
1	1538	1773
1	1580	1774
1	1625	1775
1	1661	1776
1	1694	1777
1	1708	1778
1	1702	1779
1	1684	1780
1	1644	1781
1	1598	1782
1	1555	1783
1	1517	1784
1	1485	1785
1	1467	1786
1	1461	1787
1	1472	1788
1	1487	1789
1	1506	1790
1	1526	1791
1	1548	1792
1	1580	1793
1	1616	1794
1	1656	1795
1	1686	1796
1	1707	1797
1	1713	1798
1	1713	1799
1	1697	1800
1	1674	1801
1	1647	1802
1	1621	1803
1	1603	1804
1	1587	1805
1	1562	1806
1	1542	1807
1	1530	1808
1	1526	1809
1	1523	1810
1	1525	1811
1	1538	1812
1	1560	1813
1	1593	1814
1	1629	1815
1	1661	1816
1	1691	1817
1	1708	1818
1	1712	1819
1	1710	1820
1	1681	1821
1	1647	1822
1	1609	1823
1	1570	1824
1	1526	1825
1	1490	1826
1	1465	1827
1	1449	1828
1	1441	1829
1	1438	1830
1	1444	1831
1	1459	1832
1	1490	1833
1	1535	1834
1	1581	1835
1	1622	1836
1	1660	1837
1	1674	1838
1	1687	1839
1	1733	1860
1	1708	1861
1	1674	1862
1	1636	1863
1	1594	1864
1	1556	1865
1	1521	1866
1	1498	1867
1	1490	1868
1	1490	1869
1	1497	1870
1	1505	1871
1	1529	1872
1	1560	1873
1	1605	1874
1	1643	1875
1	1682	1876
1	1709	1877
1	1718	1878
1	1713	1879
1	1674	1840
1	1647	1841
1	1619	1842
1	1590	1843
1	1563	1844
1	1544	1845
1	1537	1846
1	1538	1847
1	1541	1848
1	1544	1849
1	1552	1850
1	1555	1851
1	1567	1852
1	1585	1853
1	1611	1854
1	1646	1855
1	1677	1856
1	1710	1857
1	1730	1858
1	1743	1859
1	1700	1880
1	1672	1881
1	1644	1882
1	1621	1883
1	1605	1884
1	1584	1885
1	1566	1886
1	1555	1887
1	1548	1888
1	1544	1889
1	1539	1890
1	1537	1891
1	1545	1892
1	1565	1893
1	1595	1894
1	1643	1895
1	1687	1896
1	1724	1897
1	1742	1898
1	1742	1899
1	1726	1900
1	1691	1901
1	1658	1902
1	1620	1903
1	1593	1904
1	1567	1905
1	1553	1906
1	1546	1907
1	1551	1908
1	1564	1909
1	1585	1910
1	1609	1911
1	1634	1912
1	1661	1913
1	1697	1914
1	1733	1915
1	1764	1916
1	1779	1917
1	1786	1918
1	1778	1919
1	1750	1920
1	1717	1921
1	1683	1922
1	1651	1923
1	1622	1924
1	1602	1925
1	1582	1926
1	1562	1927
1	1564	1928
1	1567	1929
1	1566	1930
1	1575	1931
1	1593	1932
1	1620	1933
1	1657	1934
1	1698	1935
1	1734	1936
1	1764	1937
1	1779	1938
1	1788	1939
1	1782	1940
1	1762	1941
1	1734	1942
1	1711	1943
1	1680	1944
1	1654	1945
1	1634	1946
1	1617	1947
1	1607	1948
1	1607	1949
1	1607	1950
1	1616	1951
1	1634	1952
1	1660	1953
1	1694	1954
1	1737	1955
1	1767	1956
1	1791	1957
1	1801	1958
1	1792	1959
1	1768	1960
1	1730	1961
1	1686	1962
1	1639	1963
1	1592	1964
1	1542	1965
1	1502	1966
1	1476	1967
1	1465	1968
1	1465	1969
1	1476	1970
1	1490	1971
1	1514	1972
1	1543	1973
1	1584	1974
1	1624	1975
1	1660	1976
1	1683	1977
1	1693	1978
1	1689	1979
1	1665	1980
1	1631	1981
1	1593	1982
1	1557	1983
1	1529	1984
1	1504	1985
1	1487	1986
1	1478	1987
1	1484	1988
1	1498	1989
1	1521	1990
1	1549	1991
1	1581	1992
1	1621	1993
1	1664	1994
1	1699	1995
1	1724	1996
1	1738	1997
1	1739	1998
1	1726	1999
1	1697	2000
1	1656	2001
1	1617	2002
1	1586	2003
1	1561	2004
1	1544	2005
1	1537	2006
1	1539	2007
1	1544	2008
1	1552	2009
1	1555	2010
1	1564	2011
1	1581	2012
1	1605	2013
1	1634	2014
1	1675	2015
1	1710	2016
1	1736	2017
1	1746	2018
1	1747	2019
1	1771	2040
1	1738	2041
1	1709	2042
1	1682	2043
1	1664	2044
1	1673	2045
1	1690	2046
1	1723	2047
1	1770	2048
1	1831	2049
1	1890	2050
1	1943	2051
1	1991	2052
1	2043	2053
1	2090	2054
1	2129	2055
1	2157	2056
1	2167	2057
1	2161	2058
1	2142	2059
1	2116	2060
1	2066	2061
1	2012	2062
1	1949	2063
1	1890	2064
1	1832	2065
1	1777	2066
1	1733	2067
1	1695	2068
1	1667	2069
1	1647	2070
1	1631	2071
1	1625	2072
1	1631	2073
1	1647	2074
1	1683	2075
1	1713	2076
1	1739	2077
1	1751	2078
1	1752	2079
1	1725	2020
1	1685	2021
1	1634	2022
1	1577	2023
1	1526	2024
1	1485	2025
1	1461	2026
1	1449	2027
1	1450	2028
1	1467	2029
1	1492	2030
1	1523	2031
1	1557	2032
1	1600	2033
1	1661	2034
1	1711	2035
1	1752	2036
1	1783	2037
1	1800	2038
1	1798	2039
1	1743	2080
1	1724	2081
1	1698	2082
1	1669	2083
1	1641	2084
1	1608	2085
1	1581	2086
1	1555	2087
1	1533	2088
1	1526	2089
1	1529	2090
1	1535	2091
1	1554	2092
1	1584	2093
1	1629	2094
1	1673	2095
1	1713	2096
1	1744	2097
1	1764	2098
1	1769	2099
1	1754	2100
1	1731	2101
1	1704	2102
1	1684	2103
1	1660	2104
1	1638	2105
1	1612	2106
1	1585	2107
1	1564	2108
1	1546	2109
1	1530	2110
1	1523	2111
1	1529	2112
1	1550	2113
1	1587	2114
1	1626	2115
1	1668	2116
1	1706	2117
1	1729	2118
1	1738	2119
1	1738	2120
1	1716	2121
1	1686	2122
1	1657	2123
1	1626	2124
1	1596	2125
1	1575	2126
1	1559	2127
1	1549	2128
1	1541	2129
1	1542	2130
1	1544	2131
1	1554	2132
1	1566	2133
1	1584	2134
1	1607	2135
1	1633	2136
1	1660	2137
1	1680	2138
1	1702	2139
1	1826	2160
1	1791	2161
1	1754	2162
1	1715	2163
1	1682	2164
1	1655	2165
1	1627	2166
1	1603	2167
1	1585	2168
1	1575	2169
1	1566	2170
1	1566	2171
1	1578	2172
1	1603	2173
1	1634	2174
1	1669	2175
1	1704	2176
1	1736	2177
1	1754	2178
1	1756	2179
1	1704	2140
1	1690	2141
1	1664	2142
1	1634	2143
1	1607	2144
1	1580	2145
1	1566	2146
1	1562	2147
1	1567	2148
1	1580	2149
1	1599	2150
1	1609	2151
1	1631	2152
1	1657	2153
1	1691	2154
1	1734	2155
1	1773	2156
1	1811	2157
1	1832	2158
1	1841	2159
1	1791	2200
1	1759	2201
1	1717	2202
1	1684	2203
1	1654	2204
1	1631	2205
1	1620	2206
1	1620	2207
1	1629	2208
1	1638	2209
1	1651	2210
1	1661	2211
1	1679	2212
1	1704	2213
1	1736	2214
1	1773	2215
1	1813	2216
1	1839	2217
1	1854	2218
1	1845	2219
1	1746	2180
1	1714	2181
1	1682	2182
1	1652	2183
1	1625	2184
1	1606	2185
1	1593	2186
1	1594	2187
1	1607	2188
1	1620	2189
1	1635	2190
1	1656	2191
1	1682	2192
1	1708	2193
1	1738	2194
1	1773	2195
1	1803	2196
1	1824	2197
1	1827	2198
1	1817	2199
1	1817	2220
1	1772	2221
1	1727	2222
1	1686	2223
1	1647	2224
1	1620	2225
1	1600	2226
1	1584	2227
1	1587	2228
1	1590	2229
1	1597	2230
1	1615	2231
1	1641	2232
1	1679	2233
1	1726	2234
1	1777	2235
1	1827	2236
1	1867	2237
1	1893	2238
1	1908	2239
1	1909	2240
1	1901	2241
1	1881	2242
1	1865	2243
1	1842	2244
1	1817	2245
1	1796	2246
1	1783	2247
1	1777	2248
1	1778	2249
1	1770	2250
1	1773	2251
1	1782	2252
1	1806	2253
1	1832	2254
1	1869	2255
1	1896	2256
1	1917	2257
1	1930	2258
1	1931	2259
1	1883	2280
1	1867	2281
1	1847	2282
1	1831	2283
1	1817	2284
1	1809	2285
1	1791	2286
1	1775	2287
1	1757	2288
1	1738	2289
1	1726	2290
1	1715	2291
1	1711	2292
1	1719	2293
1	1740	2294
1	1760	2295
1	1782	2296
1	1800	2297
1	1812	2298
1	1808	2299
1	1922	2260
1	1907	2261
1	1885	2262
1	1863	2263
1	1841	2264
1	1809	2265
1	1789	2266
1	1777	2267
1	1773	2268
1	1776	2269
1	1787	2270
1	1789	2271
1	1793	2272
1	1811	2273
1	1829	2274
1	1851	2275
1	1870	2276
1	1891	2277
1	1899	2278
1	1897	2279
1	1795	2300
1	1765	2301
1	1737	2302
1	1709	2303
1	1687	2304
1	1668	2305
1	1652	2306
1	1638	2307
1	1631	2308
1	1622	2309
1	1618	2310
1	1620	2311
1	1633	2312
1	1654	2313
1	1684	2314
1	1714	2315
1	1738	2316
1	1756	2317
1	1763	2318
1	1759	2319
1	1743	2320
1	1719	2321
1	1690	2322
1	1657	2323
1	1631	2324
1	1605	2325
1	1581	2326
1	1569	2327
1	1564	2328
1	1567	2329
1	1576	2330
1	1584	2331
1	1597	2332
1	1620	2333
1	1659	2334
1	1695	2335
1	1733	2336
1	1763	2337
1	1777	2338
1	1773	2339
1	1744	2340
1	1705	2341
1	1660	2342
1	1607	2343
1	1554	2344
1	1507	2345
1	1466	2346
1	1436	2347
1	1413	2348
1	1399	2349
1	1401	2350
1	1416	2351
1	1442	2352
1	1487	2353
1	1546	2354
1	1605	2355
1	1660	2356
1	1706	2357
1	1738	2358
1	1752	2359
1	1751	2360
1	1724	2361
1	1684	2362
1	1643	2363
1	1599	2364
1	1561	2365
1	1535	2366
1	1528	2367
1	1525	2368
1	1529	2369
1	1529	2370
1	1536	2371
1	1549	2372
1	1573	2373
1	1602	2374
1	1635	2375
1	1665	2376
1	1692	2377
1	1709	2378
1	1711	2379
1	1698	2380
1	1667	2381
1	1630	2382
1	1590	2383
1	1553	2384
1	1517	2385
1	1488	2386
1	1464	2387
1	1450	2388
1	1445	2389
1	1449	2390
1	1451	2391
1	1465	2392
1	1490	2393
1	1528	2394
1	1566	2395
1	1607	2396
1	1643	2397
1	1670	2398
1	1686	2399
1	1682	2400
1	1660	2401
1	1634	2402
1	1607	2403
1	1586	2404
1	1571	2405
1	1552	2406
1	1533	2407
1	1527	2408
1	1529	2409
1	1538	2410
1	1549	2411
1	1557	2412
1	1581	2413
1	1608	2414
1	1639	2415
1	1670	2416
1	1691	2417
1	1701	2418
1	1703	2419
1	1692	2420
1	1660	2421
1	1622	2422
1	1582	2423
1	1557	2424
1	1526	2425
1	1500	2426
1	1484	2427
1	1476	2428
1	1476	2429
1	1478	2430
1	1490	2431
1	1511	2432
1	1551	2433
1	1604	2434
1	1660	2435
1	1727	2436
1	1778	2437
1	1817	2438
1	1831	2439
1	1826	2440
1	1798	2441
1	1757	2442
1	1711	2443
1	1661	2444
1	1608	2445
1	1565	2446
1	1528	2447
1	1500	2448
1	1488	2449
1	1490	2450
1	1503	2451
1	1527	2452
1	1559	2453
1	1608	2454
1	1655	2455
1	1695	2456
1	1723	2457
1	1737	2458
1	1735	2459
1	1710	2480
1	1681	2481
1	1639	2482
1	1605	2483
1	1577	2484
1	1555	2485
1	1542	2486
1	1538	2487
1	1541	2488
1	1555	2489
1	1559	2490
1	1567	2491
1	1581	2492
1	1600	2493
1	1623	2494
1	1651	2495
1	1672	2496
1	1687	2497
1	1699	2498
1	1697	2499
1	1711	2460
1	1676	2461
1	1634	2462
1	1591	2463
1	1544	2464
1	1503	2465
1	1465	2466
1	1435	2467
1	1426	2468
1	1428	2469
1	1448	2470
1	1467	2471
1	1493	2472
1	1529	2473
1	1579	2474
1	1625	2475
1	1667	2476
1	1699	2477
1	1713	2478
1	1716	2479
1	1677	2500
1	1646	2501
1	1607	2502
1	1579	2503
1	1559	2504
1	1551	2505
1	1555	2506
1	1566	2507
1	1577	2508
1	1585	2509
1	1599	2510
1	1608	2511
1	1621	2512
1	1647	2513
1	1676	2514
1	1703	2515
1	1730	2516
1	1746	2517
1	1753	2518
1	1747	2519
1	1725	2520
1	1698	2521
1	1665	2522
1	1634	2523
1	1602	2524
1	1578	2525
1	1553	2526
1	1527	2527
1	1517	2528
1	1508	2529
1	1505	2530
1	1509	2531
1	1520	2532
1	1539	2533
1	1566	2534
1	1603	2535
1	1639	2536
1	1672	2537
1	1700	2538
1	1717	2539
1	1701	2560
1	1671	2561
1	1634	2562
1	1599	2563
1	1561	2564
1	1525	2565
1	1501	2566
1	1485	2567
1	1479	2568
1	1481	2569
1	1490	2570
1	1498	2571
1	1517	2572
1	1549	2573
1	1589	2574
1	1634	2575
1	1686	2576
1	1729	2577
1	1762	2578
1	1775	2579
1	1718	2540
1	1705	2541
1	1677	2542
1	1652	2543
1	1619	2544
1	1594	2545
1	1580	2546
1	1572	2547
1	1569	2548
1	1571	2549
1	1569	2550
1	1573	2551
1	1580	2552
1	1593	2553
1	1621	2554
1	1661	2555
1	1695	2556
1	1713	2557
1	1721	2558
1	1718	2559
1	1922	2600
1	1900	2601
1	1871	2602
1	1845	2603
1	1814	2604
1	1773	2605
1	1738	2606
1	1703	2607
1	1667	2608
1	1636	2609
1	1612	2610
1	1598	2611
1	1597	2612
1	1613	2613
1	1639	2614
1	1677	2615
1	1716	2616
1	1751	2617
1	1778	2618
1	1788	2619
1	1764	2580
1	1742	2581
1	1711	2582
1	1674	2583
1	1638	2584
1	1615	2585
1	1592	2586
1	1576	2587
1	1566	2588
1	1572	2589
1	1589	2590
1	1608	2591
1	1642	2592
1	1689	2593
1	1746	2594
1	1800	2595
1	1853	2596
1	1888	2597
1	1910	2598
1	1922	2599
1	1779	2620
1	1747	2621
1	1704	2622
1	1641	2623
1	1606	2624
1	1561	2625
1	1533	2626
1	1518	2627
1	1515	2628
1	1518	2629
1	1523	2630
1	1526	2631
1	1533	2632
1	1553	2633
1	1581	2634
1	1608	2635
1	1638	2636
1	1662	2637
1	1677	2638
1	1680	2639
1	1664	2640
1	1644	2641
1	1610	2642
1	1580	2643
1	1554	2644
1	1540	2645
1	1529	2646
1	1527	2647
1	1535	2648
1	1554	2649
1	1577	2650
1	1603	2651
1	1629	2652
1	1660	2653
1	1697	2654
1	1726	2655
1	1759	2656
1	1783	2657
1	1793	2658
1	1791	2659
1	1779	2660
1	1746	2661
1	1702	2662
1	1660	2663
1	1622	2664
1	1589	2665
1	1560	2666
1	1544	2667
1	1536	2668
1	1531	2669
1	1525	2670
1	1526	2671
1	1543	2672
1	1573	2673
1	1610	2674
1	1651	2675
1	1686	2676
1	1712	2677
1	1724	2678
1	1724	2679
1	1713	2680
1	1691	2681
1	1656	2682
1	1616	2683
1	1582	2684
1	1550	2685
1	1531	2686
1	1525	2687
1	1521	2688
1	1523	2689
1	1530	2690
1	1543	2691
1	1560	2692
1	1593	2693
1	1634	2694
1	1683	2695
1	1730	2696
1	1766	2697
1	1791	2698
1	1800	2699
1	1791	2700
1	1770	2701
1	1740	2702
1	1706	2703
1	1667	2704
1	1634	2705
1	1595	2706
1	1563	2707
1	1544	2708
1	1540	2709
1	1542	2710
1	1553	2711
1	1567	2712
1	1594	2713
1	1643	2714
1	1700	2715
1	1770	2716
1	1850	2717
1	1922	2718
1	1983	2719
1	2034	2720
1	2065	2721
1	2076	2722
1	2077	2723
1	2079	2724
1	2058	2725
1	2042	2726
1	2026	2727
1	2016	2728
1	2011	2729
1	2005	2730
1	2001	2731
1	2003	2732
1	2013	2733
1	2027	2734
1	2049	2735
1	2061	2736
1	2061	2737
1	2048	2738
1	2021	2739
1	1975	2740
1	1919	2741
1	1857	2742
1	1795	2743
1	1739	2744
1	1686	2745
1	1649	2746
1	1621	2747
1	1601	2748
1	1588	2749
1	1590	2750
1	1595	2751
1	1611	2752
1	1643	2753
1	1683	2754
1	1726	2755
1	1766	2756
1	1796	2757
1	1817	2758
1	1817	2759
1	1795	2760
1	1767	2761
1	1736	2762
1	1695	2763
1	1660	2764
1	1635	2765
1	1612	2766
1	1598	2767
1	1594	2768
1	1593	2769
1	1593	2770
1	1593	2771
1	1597	2772
1	1611	2773
1	1634	2774
1	1654	2775
1	1672	2776
1	1686	2777
1	1688	2778
1	1681	2779
1	1665	2780
1	1643	2781
1	1608	2782
1	1583	2783
1	1564	2784
1	1554	2785
1	1551	2786
1	1555	2787
1	1557	2788
1	1561	2789
1	1564	2790
1	1569	2791
1	1575	2792
1	1591	2793
1	1620	2794
1	1658	2795
1	1693	2796
1	1726	2797
1	1747	2798
1	1760	2799
1	1759	2800
1	1744	2801
1	1713	2802
1	1686	2803
1	1660	2804
1	1631	2805
1	1607	2806
1	1589	2807
1	1580	2808
1	1577	2809
1	1584	2810
1	1593	2811
1	1607	2812
1	1634	2813
1	1664	2814
1	1697	2815
1	1726	2816
1	1748	2817
1	1757	2818
1	1760	2819
1	1742	2820
1	1720	2821
1	1692	2822
1	1665	2823
1	1646	2824
1	1629	2825
1	1611	2826
1	1599	2827
1	1605	2828
1	1615	2829
1	1629	2830
1	1644	2831
1	1652	2832
1	1675	2833
1	1703	2834
1	1734	2835
1	1764	2836
1	1786	2837
1	1791	2838
1	1785	2839
1	1759	2840
1	1722	2841
1	1685	2842
1	1658	2843
1	1629	2844
1	1600	2845
1	1582	2846
1	1571	2847
1	1567	2848
1	1568	2849
1	1566	2850
1	1567	2851
1	1581	2852
1	1605	2853
1	1639	2854
1	1688	2855
1	1734	2856
1	1774	2857
1	1814	2858
1	1835	2859
1	1843	2860
1	1834	2861
1	1817	2862
1	1793	2863
1	1766	2864
1	1733	2865
1	1706	2866
1	1684	2867
1	1670	2868
1	1662	2869
1	1667	2870
1	1670	2871
1	1684	2872
1	1712	2873
1	1751	2874
1	1798	2875
1	1843	2876
1	1873	2877
1	1892	2878
1	1893	2879
1	1832	2900
1	1803	2901
1	1769	2902
1	1746	2903
1	1725	2904
1	1713	2905
1	1712	2906
1	1717	2907
1	1729	2908
1	1742	2909
1	1751	2910
1	1763	2911
1	1775	2912
1	1795	2913
1	1824	2914
1	1856	2915
1	1888	2916
1	1908	2917
1	1922	2918
1	1922	2919
1	1875	2880
1	1854	2881
1	1820	2882
1	1785	2883
1	1755	2884
1	1733	2885
1	1712	2886
1	1700	2887
1	1697	2888
1	1699	2889
1	1704	2890
1	1712	2891
1	1719	2892
1	1738	2893
1	1760	2894
1	1784	2895
1	1809	2896
1	1825	2897
1	1834	2898
1	1839	2899
1	1906	2920
1	1877	2921
1	1839	2922
1	1791	2923
1	1764	2924
1	1738	2925
1	1723	2926
1	1712	2927
1	1708	2928
1	1711	2929
1	1720	2930
1	1735	2931
1	1754	2932
1	1791	2933
1	1845	2934
1	1891	2935
1	1934	2936
1	1970	2937
1	1992	2938
1	2000	2939
1	1980	2940
1	1949	2941
1	1907	2942
1	1861	2943
1	1823	2944
1	1795	2945
1	1772	2946
1	1760	2947
1	1755	2948
1	1757	2949
1	1765	2950
1	1781	2951
1	1800	2952
1	1834	2953
1	1869	2954
1	1908	2955
1	1953	2956
1	1982	2957
1	1992	2958
1	1983	2959
1	1965	2960
1	1932	2961
1	1895	2962
1	1857	2963
1	1817	2964
1	1775	2965
1	1741	2966
1	1716	2967
1	1705	2968
1	1698	2969
1	1692	2970
1	1695	2971
1	1704	2972
1	1724	2973
1	1751	2974
1	1789	2975
1	1818	2976
1	1843	2977
1	1853	2978
1	1843	2979
1	1818	2980
1	1778	2981
1	1736	2982
1	1695	2983
1	1659	2984
1	1627	2985
1	1607	2986
1	1595	2987
1	1592	2988
1	1595	2989
1	1607	2990
1	1615	2991
1	1628	2992
1	1654	2993
1	1690	2994
1	1733	2995
1	1771	2996
1	1803	2997
1	1818	2998
1	1814	2999
1	1783	3000
1	1747	3001
1	1706	3002
1	1671	3003
1	1638	3004
1	1607	3005
1	1581	3006
1	1557	3007
1	1541	3008
1	1533	3009
1	1538	3010
1	1553	3011
1	1566	3012
1	1592	3013
1	1624	3014
1	1657	3015
1	1688	3016
1	1713	3017
1	1729	3018
1	1730	3019
1	1715	3020
1	1685	3021
1	1644	3022
1	1600	3023
1	1569	3024
1	1530	3025
1	1507	3026
1	1494	3027
1	1499	3028
1	1510	3029
1	1523	3030
1	1535	3031
1	1553	3032
1	1581	3033
1	1620	3034
1	1660	3035
1	1698	3036
1	1725	3037
1	1739	3038
1	1744	3039
1	1749	3060
1	1737	3061
1	1714	3062
1	1688	3063
1	1662	3064
1	1638	3065
1	1607	3066
1	1576	3067
1	1553	3068
1	1539	3069
1	1533	3070
1	1533	3071
1	1539	3072
1	1559	3073
1	1585	3074
1	1615	3075
1	1647	3076
1	1673	3077
1	1690	3078
1	1697	3079
1	1688	3080
1	1668	3081
1	1647	3082
1	1636	3083
1	1636	3084
1	1639	3085
1	1642	3086
1	1636	3087
1	1631	3088
1	1616	3089
1	1602	3090
1	1592	3091
1	1589	3092
1	1603	3093
1	1629	3094
1	1664	3095
1	1695	3096
1	1716	3097
1	1735	3098
1	1741	3099
1	1740	3100
1	1727	3101
1	1703	3102
1	1674	3103
1	1642	3104
1	1607	3105
1	1581	3106
1	1557	3107
1	1543	3108
1	1531	3109
1	1531	3110
1	1531	3111
1	1537	3112
1	1553	3113
1	1575	3114
1	1607	3115
1	1634	3116
1	1660	3117
1	1682	3118
1	1694	3119
1	1737	3040
1	1710	3041
1	1674	3042
1	1647	3043
1	1621	3044
1	1593	3045
1	1581	3046
1	1579	3047
1	1577	3048
1	1580	3049
1	1586	3050
1	1593	3051
1	1603	3052
1	1620	3053
1	1643	3054
1	1670	3055
1	1700	3056
1	1724	3057
1	1744	3058
1	1755	3059
1	1689	3120
1	1679	3121
1	1660	3122
1	1641	3123
1	1624	3124
1	1609	3125
1	1607	3126
1	1604	3127
1	1597	3128
1	1607	3129
1	1615	3130
1	1631	3131
1	1638	3132
1	1660	3133
1	1691	3134
1	1724	3135
1	1755	3136
1	1783	3137
1	1800	3138
1	1802	3139
1	1788	3140
1	1753	3141
1	1706	3142
1	1665	3143
1	1624	3144
1	1582	3145
1	1548	3146
1	1520	3147
1	1503	3148
1	1501	3149
1	1502	3150
1	1508	3151
1	1521	3152
1	1543	3153
1	1580	3154
1	1624	3155
1	1661	3156
1	1695	3157
1	1719	3158
1	1733	3159
1	1730	3160
1	1712	3161
1	1682	3162
1	1647	3163
1	1609	3164
1	1572	3165
1	1544	3166
1	1528	3167
1	1517	3168
1	1507	3169
1	1505	3170
1	1510	3171
1	1526	3172
1	1555	3173
1	1598	3174
1	1649	3175
1	1701	3176
1	1741	3177
1	1774	3178
1	1786	3179
1	1770	3180
1	1744	3181
1	1709	3182
1	1670	3183
1	1632	3184
1	1594	3185
1	1564	3186
1	1543	3187
1	1531	3188
1	1529	3189
1	1526	3190
1	1529	3191
1	1535	3192
1	1555	3193
1	1583	3194
1	1620	3195
1	1661	3196
1	1705	3197
1	1738	3198
1	1755	3199
1	1762	3200
1	1750	3201
1	1727	3202
1	1710	3203
1	1695	3204
1	1684	3205
1	1672	3206
1	1659	3207
1	1649	3208
1	1647	3209
1	1646	3210
1	1652	3211
1	1659	3212
1	1668	3213
1	1687	3214
1	1714	3215
1	1738	3216
1	1752	3217
1	1760	3218
1	1751	3219
1	1734	3220
1	1705	3221
1	1665	3222
1	1631	3223
1	1598	3224
1	1573	3225
1	1555	3226
1	1548	3227
1	1548	3228
1	1557	3229
1	1569	3230
1	1584	3231
1	1606	3232
1	1634	3233
1	1673	3234
1	1704	3235
1	1735	3236
1	1755	3237
1	1764	3238
1	1755	3239
1	1733	3240
1	1705	3241
1	1673	3242
1	1647	3243
1	1630	3244
1	1610	3245
1	1598	3246
1	1589	3247
1	1587	3248
1	1585	3249
1	1587	3250
1	1593	3251
1	1602	3252
1	1616	3253
1	1639	3254
1	1669	3255
1	1701	3256
1	1724	3257
1	1739	3258
1	1744	3259
1	1734	3260
1	1705	3261
1	1665	3262
1	1634	3263
1	1608	3264
1	1592	3265
1	1581	3266
1	1578	3267
1	1580	3268
1	1584	3269
1	1584	3270
1	1600	3271
1	1618	3272
1	1645	3273
1	1671	3274
1	1699	3275
1	1724	3276
1	1744	3277
1	1757	3278
1	1759	3279
1	1817	3300
1	1777	3301
1	1735	3302
1	1692	3303
1	1657	3304
1	1631	3305
1	1610	3306
1	1598	3307
1	1595	3308
1	1597	3309
1	1607	3310
1	1623	3311
1	1645	3312
1	1678	3313
1	1719	3314
1	1763	3315
1	1809	3316
1	1845	3317
1	1868	3318
1	1881	3319
1	1750	3280
1	1727	3281
1	1698	3282
1	1670	3283
1	1647	3284
1	1618	3285
1	1602	3286
1	1592	3287
1	1590	3288
1	1597	3289
1	1619	3290
1	1641	3291
1	1661	3292
1	1690	3293
1	1724	3294
1	1764	3295
1	1796	3296
1	1827	3297
1	1841	3298
1	1840	3299
1	1873	3320
1	1842	3321
1	1789	3322
1	1731	3323
1	1690	3324
1	1646	3325
1	1613	3326
1	1592	3327
1	1577	3328
1	1566	3329
1	1561	3330
1	1559	3331
1	1566	3332
1	1580	3333
1	1606	3334
1	1634	3335
1	1662	3336
1	1691	3337
1	1714	3338
1	1737	3339
1	1839	3360
1	1816	3361
1	1772	3362
1	1728	3363
1	1683	3364
1	1636	3365
1	1597	3366
1	1564	3367
1	1545	3368
1	1535	3369
1	1530	3370
1	1531	3371
1	1539	3372
1	1560	3373
1	1595	3374
1	1633	3375
1	1670	3376
1	1698	3377
1	1719	3378
1	1726	3379
1	1727	3380
1	1713	3381
1	1685	3382
1	1653	3383
1	1618	3384
1	1589	3385
1	1558	3386
1	1536	3387
1	1518	3388
1	1507	3389
1	1502	3390
1	1507	3391
1	1527	3392
1	1555	3393
1	1602	3394
1	1657	3395
1	1708	3396
1	1751	3397
1	1782	3398
1	1793	3399
1	1737	3340
1	1721	3341
1	1699	3342
1	1673	3343
1	1648	3344
1	1611	3345
1	1581	3346
1	1551	3347
1	1526	3348
1	1520	3349
1	1522	3350
1	1531	3351
1	1554	3352
1	1592	3353
1	1637	3354
1	1692	3355
1	1749	3356
1	1795	3357
1	1832	3358
1	1848	3359
1	1790	3400
1	1766	3401
1	1731	3402
1	1694	3403
1	1661	3404
1	1633	3405
1	1615	3406
1	1605	3407
1	1605	3408
1	1613	3409
1	1626	3410
1	1637	3411
1	1651	3412
1	1673	3413
1	1703	3414
1	1746	3415
1	1796	3416
1	1852	3417
1	1900	3418
1	1944	3419
1	2053	3440
1	1992	3441
1	1922	3442
1	1864	3443
1	1796	3444
1	1738	3445
1	1692	3446
1	1660	3447
1	1635	3448
1	1620	3449
1	1600	3450
1	1593	3451
1	1592	3452
1	1605	3453
1	1633	3454
1	1665	3455
1	1695	3456
1	1719	3457
1	1734	3458
1	1733	3459
1	1965	3420
1	1976	3421
1	1974	3422
1	1974	3423
1	1974	3424
1	1978	3425
1	1982	3426
1	1983	3427
1	2002	3428
1	2019	3429
1	2031	3430
1	2048	3431
1	2057	3432
1	2075	3433
1	2093	3434
1	2106	3435
1	2119	3436
1	2127	3437
1	2119	3438
1	2097	3439
1	1723	3460
1	1703	3461
1	1672	3462
1	1643	3463
1	1618	3464
1	1590	3465
1	1568	3466
1	1547	3467
1	1531	3468
1	1528	3469
1	1531	3470
1	1545	3471
1	1563	3472
1	1594	3473
1	1631	3474
1	1674	3475
1	1718	3476
1	1762	3477
1	1793	3478
1	1815	3479
1	1801	3480
1	1776	3481
1	1733	3482
1	1678	3483
1	1626	3484
1	1577	3485
1	1530	3486
1	1495	3487
1	1474	3488
1	1464	3489
1	1469	3490
1	1485	3491
1	1511	3492
1	1551	3493
1	1599	3494
1	1647	3495
1	1703	3496
1	1750	3497
1	1783	3498
1	1808	3499
1	1809	3500
1	1782	3501
1	1741	3502
1	1697	3503
1	1650	3504
1	1608	3505
1	1580	3506
1	1557	3507
1	1549	3508
1	1553	3509
1	1555	3510
1	1568	3511
1	1590	3512
1	1621	3513
1	1660	3514
1	1705	3515
1	1747	3516
1	1782	3517
1	1818	3518
1	1836	3519
1	1839	3520
1	1819	3521
1	1775	3522
1	1737	3523
1	1690	3524
1	1647	3525
1	1610	3526
1	1583	3527
1	1566	3528
1	1557	3529
1	1556	3530
1	1566	3531
1	1582	3532
1	1611	3533
1	1657	3534
1	1697	3535
1	1729	3536
1	1754	3537
1	1766	3538
1	1769	3539
1	1752	3540
1	1730	3541
1	1699	3542
1	1665	3543
1	1639	3544
1	1618	3545
1	1593	3546
1	1568	3547
1	1555	3548
1	1556	3549
1	1569	3550
1	1586	3551
1	1607	3552
1	1642	3553
1	1686	3554
1	1728	3555
1	1773	3556
1	1818	3557
1	1850	3558
1	1863	3559
1	1862	3580
1	1849	3581
1	1819	3582
1	1769	3583
1	1738	3584
1	1701	3585
1	1670	3586
1	1651	3587
1	1646	3588
1	1644	3589
1	1657	3590
1	1670	3591
1	1688	3592
1	1723	3593
1	1764	3594
1	1814	3595
1	1855	3596
1	1884	3597
1	1901	3598
1	1901	3599
1	1869	3560
1	1850	3561
1	1818	3562
1	1783	3563
1	1749	3564
1	1713	3565
1	1683	3566
1	1656	3567
1	1634	3568
1	1622	3569
1	1613	3570
1	1617	3571
1	1625	3572
1	1639	3573
1	1669	3574
1	1715	3575
1	1764	3576
1	1802	3577
1	1840	3578
1	1858	3579
1	1881	3600
1	1846	3601
1	1808	3602
1	1773	3603
1	1748	3604
1	1728	3605
1	1705	3606
1	1685	3607
1	1665	3608
1	1651	3609
1	1638	3610
1	1634	3611
1	1629	3612
1	1635	3613
1	1661	3614
1	1699	3615
1	1740	3616
1	1782	3617
1	1816	3618
1	1836	3619
1	1854	3620
1	1849	3621
1	1825	3622
1	1809	3623
1	1791	3624
1	1764	3625
1	1751	3626
1	1737	3627
1	1721	3628
1	1706	3629
1	1696	3630
1	1688	3631
1	1687	3632
1	1697	3633
1	1718	3634
1	1751	3635
1	1790	3636
1	1829	3637
1	1859	3638
1	1882	3639
1	1888	3640
1	1878	3641
1	1854	3642
1	1821	3643
1	1791	3644
1	1764	3645
1	1757	3646
1	1751	3647
1	1751	3648
1	1751	3649
1	1763	3650
1	1769	3651
1	1789	3652
1	1821	3653
1	1863	3654
1	1910	3655
1	1950	3656
1	1980	3657
1	1994	3658
1	1986	3659
1	1842	3680
1	1799	3681
1	1744	3682
1	1685	3683
1	1634	3684
1	1592	3685
1	1555	3686
1	1530	3687
1	1517	3688
1	1517	3689
1	1526	3690
1	1548	3691
1	1580	3692
1	1618	3693
1	1658	3694
1	1702	3695
1	1738	3696
1	1766	3697
1	1789	3698
1	1796	3699
1	1957	3660
1	1922	3661
1	1877	3662
1	1837	3663
1	1795	3664
1	1767	3665
1	1739	3666
1	1717	3667
1	1698	3668
1	1686	3669
1	1682	3670
1	1683	3671
1	1686	3672
1	1705	3673
1	1738	3674
1	1770	3675
1	1816	3676
1	1846	3677
1	1862	3678
1	1857	3679
1	1791	3700
1	1775	3701
1	1742	3702
1	1701	3703
1	1660	3704
1	1616	3705
1	1581	3706
1	1556	3707
1	1541	3708
1	1532	3709
1	1542	3710
1	1544	3711
1	1551	3712
1	1563	3713
1	1585	3714
1	1609	3715
1	1633	3716
1	1649	3717
1	1658	3718
1	1652	3719
1	1634	3720
1	1609	3721
1	1582	3722
1	1557	3723
1	1536	3724
1	1524	3725
1	1517	3726
1	1517	3727
1	1520	3728
1	1532	3729
1	1545	3730
1	1567	3731
1	1589	3732
1	1618	3733
1	1655	3734
1	1693	3735
1	1734	3736
1	1764	3737
1	1790	3738
1	1794	3739
1	1616	3760
1	1597	3761
1	1571	3762
1	1548	3763
1	1529	3764
1	1503	3765
1	1490	3766
1	1476	3767
1	1475	3768
1	1474	3769
1	1485	3770
1	1501	3771
1	1521	3772
1	1553	3773
1	1595	3774
1	1644	3775
1	1695	3776
1	1737	3777
1	1764	3778
1	1769	3779
1	1790	3740
1	1764	3741
1	1724	3742
1	1686	3743
1	1646	3744
1	1610	3745
1	1581	3746
1	1563	3747
1	1554	3748
1	1548	3749
1	1539	3750
1	1534	3751
1	1530	3752
1	1533	3753
1	1549	3754
1	1579	3755
1	1601	3756
1	1623	3757
1	1633	3758
1	1629	3759
1	1751	3780
1	1715	3781
1	1670	3782
1	1628	3783
1	1589	3784
1	1558	3785
1	1529	3786
1	1503	3787
1	1485	3788
1	1472	3789
1	1458	3790
1	1451	3791
1	1456	3792
1	1476	3793
1	1503	3794
1	1539	3795
1	1584	3796
1	1633	3797
1	1671	3798
1	1697	3799
1	1711	3800
1	1698	3801
1	1664	3802
1	1633	3803
1	1599	3804
1	1571	3805
1	1547	3806
1	1530	3807
1	1520	3808
1	1512	3809
1	1505	3810
1	1508	3811
1	1516	3812
1	1533	3813
1	1566	3814
1	1618	3815
1	1667	3816
1	1710	3817
1	1736	3818
1	1748	3819
1	1742	3820
1	1724	3821
1	1686	3822
1	1647	3823
1	1610	3824
1	1585	3825
1	1567	3826
1	1549	3827
1	1531	3828
1	1516	3829
1	1508	3830
1	1508	3831
1	1514	3832
1	1527	3833
1	1556	3834
1	1586	3835
1	1620	3836
1	1644	3837
1	1660	3838
1	1664	3839
1	1656	3840
1	1641	3841
1	1624	3842
1	1607	3843
1	1594	3844
1	1590	3845
1	1581	3846
1	1572	3847
1	1568	3848
1	1573	3849
1	1581	3850
1	1597	3851
1	1613	3852
1	1638	3853
1	1676	3854
1	1711	3855
1	1742	3856
1	1775	3857
1	1796	3858
1	1801	3859
1	1796	3860
1	1769	3861
1	1728	3862
1	1678	3863
1	1632	3864
1	1583	3865
1	1543	3866
1	1510	3867
1	1489	3868
1	1477	3869
1	1476	3870
1	1490	3871
1	1508	3872
1	1531	3873
1	1559	3874
1	1594	3875
1	1625	3876
1	1657	3877
1	1679	3878
1	1683	3879
1	1670	3880
1	1646	3881
1	1608	3882
1	1568	3883
1	1541	3884
1	1517	3885
1	1499	3886
1	1484	3887
1	1476	3888
1	1476	3889
1	1494	3890
1	1508	3891
1	1523	3892
1	1541	3893
1	1566	3894
1	1594	3895
1	1623	3896
1	1647	3897
1	1665	3898
1	1674	3899
1	1670	3900
1	1659	3901
1	1635	3902
1	1607	3903
1	1586	3904
1	1580	3905
1	1571	3906
1	1567	3907
1	1561	3908
1	1555	3909
1	1553	3910
1	1554	3911
1	1555	3912
1	1570	3913
1	1597	3914
1	1633	3915
1	1670	3916
1	1706	3917
1	1728	3918
1	1737	3919
1	1739	3920
1	1728	3921
1	1700	3922
1	1681	3923
1	1657	3924
1	1629	3925
1	1616	3926
1	1600	3927
1	1589	3928
1	1581	3929
1	1579	3930
1	1581	3931
1	1589	3932
1	1603	3933
1	1631	3934
1	1668	3935
1	1707	3936
1	1741	3937
1	1764	3938
1	1775	3939
1	1760	3940
1	1730	3941
1	1691	3942
1	1647	3943
1	1602	3944
1	1544	3945
1	1511	3946
1	1481	3947
1	1454	3948
1	1436	3949
1	1426	3950
1	1416	3951
1	1420	3952
1	1438	3953
1	1476	3954
1	1518	3955
1	1566	3956
1	1615	3957
1	1655	3958
1	1685	3959
1	1751	3980
1	1751	3981
1	1737	3982
1	1703	3983
1	1682	3984
1	1659	3985
1	1642	3986
1	1638	3987
1	1643	3988
1	1658	3989
1	1670	3990
1	1683	3991
1	1690	3992
1	1704	3993
1	1733	3994
1	1774	3995
1	1817	3996
1	1852	3997
1	1870	3998
1	1876	3999
1	1698	3960
1	1704	3961
1	1697	3962
1	1674	3963
1	1649	3964
1	1625	3965
1	1594	3966
1	1557	3967
1	1530	3968
1	1505	3969
1	1490	3970
1	1482	3971
1	1486	3972
1	1501	3973
1	1529	3974
1	1564	3975
1	1609	3976
1	1656	3977
1	1699	3978
1	1730	3979
1	1862	4000
1	1836	4001
1	1790	4002
1	1738	4003
1	1691	4004
1	1646	4005
1	1613	4006
1	1593	4006
1	1581	4008
1	1577	4009
1	1575	4010
1	1574	4011
1	1581	4012
1	1593	4013
1	1615	4014
1	1647	4014
1	1682	4016
1	1713	4017
1	1737	4018
1	1751	4019
1	1742	4020
1	1726	4021
1	1695	4022
1	1659	4022
1	1629	4024
1	1602	4025
1	1587	4026
1	1571	4027
1	1552	4028
1	1546	4029
1	1546	4030
1	1553	4030
1	1557	4032
1	1573	4033
1	1596	4034
1	1625	4035
1	1659	4036
1	1685	4037
1	1697	4038
1	1699	4038
1	1678	4040
1	1647	4041
1	1611	4042
1	1581	4043
1	1548	4044
1	1519	4045
1	1501	4046
1	1490	4046
1	1484	4048
1	1484	4049
1	1485	4050
1	1495	4051
1	1507	4052
1	1530	4053
1	1566	4054
1	1611	4054
1	1649	4056
1	1686	4057
1	1712	4058
1	1729	4059
1	1737	4060
1	1729	4061
1	1710	4062
1	1681	4062
1	1652	4064
1	1613	4065
1	1592	4066
1	1568	4067
1	1554	4068
1	1546	4069
1	1544	4070
1	1542	4070
1	1542	4072
1	1553	4073
1	1577	4074
1	1616	4075
1	1662	4076
1	1708	4077
1	1739	4078
1	1753	4078
1	1743	4080
1	1719	4081
1	1683	4082
1	1634	4083
1	1587	4084
1	1549	4085
1	1508	4086
1	1479	4086
1	1461	4088
1	1454	4089
1	1455	4090
1	1467	4091
1	1484	4092
1	1514	4093
1	1557	4094
1	1607	4094
1	1660	4096
1	1701	4097
1	1731	4098
1	1749	4099
1	1760	4100
1	1752	4101
1	1729	4102
1	1701	4103
1	1673	4104
1	1648	4105
1	1629	4106
1	1619	4107
1	1621	4108
1	1634	4109
1	1652	4110
1	1680	4111
1	1706	4112
1	1738	4113
1	1790	4114
1	1856	4115
1	1922	4116
1	1989	4117
1	2047	4118
1	2089	4119
1	2117	4120
1	2127	4121
1	2118	4122
1	2093	4123
1	2061	4124
1	2022	4125
1	1987	4126
1	1953	4127
1	1922	4128
1	1899	4129
1	1878	4130
1	1859	4131
1	1842	4132
1	1832	4133
1	1835	4134
1	1842	4135
1	1850	4136
1	1856	4137
1	1856	4138
1	1847	4139
1	1818	4140
1	1779	4141
1	1734	4142
1	1683	4143
1	1640	4144
1	1607	4145
1	1576	4146
1	1554	4147
1	1543	4148
1	1542	4149
1	1544	4150
1	1548	4151
1	1549	4152
1	1557	4153
1	1580	4154
1	1606	4155
1	1636	4156
1	1672	4157
1	1709	4158
1	1735	4159
1	1724	4180
1	1698	4181
1	1661	4182
1	1629	4183
1	1603	4184
1	1581	4185
1	1564	4186
1	1554	4187
1	1548	4188
1	1553	4189
1	1557	4190
1	1566	4191
1	1576	4192
1	1590	4193
1	1611	4194
1	1639	4195
1	1674	4196
1	1707	4197
1	1724	4198
1	1727	4199
1	1743	4160
1	1734	4161
1	1701	4162
1	1665	4163
1	1629	4164
1	1589	4165
1	1555	4166
1	1529	4167
1	1512	4168
1	1507	4169
1	1505	4170
1	1515	4171
1	1529	4172
1	1544	4173
1	1575	4174
1	1607	4175
1	1647	4176
1	1683	4177
1	1711	4178
1	1725	4179
1	1715	4200
1	1699	4201
1	1673	4202
1	1641	4203
1	1618	4204
1	1597	4205
1	1579	4206
1	1563	4207
1	1554	4208
1	1549	4209
1	1553	4210
1	1567	4211
1	1584	4212
1	1608	4213
1	1642	4214
1	1680	4215
1	1713	4216
1	1749	4217
1	1769	4218
1	1785	4219
1	1783	4220
1	1769	4221
1	1740	4222
1	1708	4223
1	1678	4224
1	1634	4225
1	1602	4226
1	1581	4227
1	1573	4228
1	1570	4229
1	1578	4230
1	1593	4231
1	1610	4232
1	1626	4233
1	1652	4234
1	1675	4235
1	1705	4236
1	1733	4237
1	1750	4238
1	1764	4239
1	1764	4240
1	1750	4241
1	1718	4242
1	1677	4243
1	1631	4244
1	1568	4245
1	1529	4246
1	1489	4247
1	1459	4248
1	1451	4249
1	1458	4250
1	1481	4251
1	1517	4252
1	1567	4253
1	1626	4254
1	1686	4255
1	1747	4256
1	1796	4257
1	1843	4258
1	1859	4259
1	1850	4260
1	1831	4261
1	1798	4262
1	1766	4263
1	1744	4264
1	1719	4265
1	1694	4266
1	1674	4267
1	1658	4268
1	1647	4269
1	1644	4270
1	1647	4271
1	1656	4272
1	1670	4273
1	1697	4274
1	1718	4275
1	1751	4276
1	1783	4277
1	1809	4278
1	1814	4279
1	1811	4280
1	1782	4281
1	1751	4282
1	1716	4283
1	1686	4284
1	1656	4285
1	1634	4286
1	1629	4287
1	1631	4288
1	1634	4289
1	1635	4290
1	1644	4291
1	1652	4292
1	1666	4293
1	1695	4294
1	1728	4295
1	1769	4296
1	1817	4297
1	1859	4298
1	1886	4299
1	1895	4300
1	1892	4301
1	1872	4302
1	1852	4303
1	1825	4304
1	1787	4305
1	1764	4306
1	1744	4307
1	1733	4308
1	1726	4309
1	1721	4310
1	1712	4311
1	1709	4312
1	1708	4313
1	1719	4314
1	1746	4315
1	1778	4316
1	1809	4317
1	1829	4318
1	1836	4319
1	1821	4320
1	1811	4321
1	1786	4322
1	1760	4323
1	1738	4324
1	1715	4325
1	1705	4326
1	1694	4327
1	1683	4328
1	1692	4329
1	1698	4330
1	1712	4331
1	1729	4332
1	1751	4333
1	1786	4334
1	1829	4335
1	1872	4336
1	1921	4337
1	1961	4338
1	1998	4339
1	2008	4340
1	2003	4341
1	1985	4342
1	1959	4343
1	1922	4344
1	1877	4345
1	1836	4346
1	1798	4347
1	1772	4348
1	1755	4349
1	1735	4350
1	1727	4351
1	1726	4352
1	1737	4353
1	1762	4354
1	1791	4355
1	1826	4356
1	1856	4357
1	1880	4358
1	1895	4359
1	1898	4360
1	1890	4361
1	1860	4362
1	1827	4363
1	1790	4364
1	1751	4365
1	1719	4366
1	1694	4367
1	1674	4368
1	1670	4369
1	1664	4370
1	1661	4371
1	1663	4372
1	1672	4373
1	1691	4374
1	1723	4375
1	1754	4376
1	1782	4377
1	1802	4378
1	1815	4379
1	1810	4380
1	1796	4381
1	1778	4382
1	1755	4383
1	1738	4384
1	1715	4385
1	1697	4386
1	1682	4387
1	1671	4388
1	1664	4389
1	1660	4390
1	1660	4391
1	1660	4392
1	1664	4393
1	1682	4394
1	1697	4395
1	1712	4396
1	1726	4397
1	1730	4398
1	1725	4399
1	1709	4400
1	1677	4401
1	1638	4402
1	1595	4403
1	1566	4404
1	1543	4405
1	1529	4406
1	1520	4407
1	1517	4408
1	1518	4409
1	1521	4410
1	1529	4411
1	1538	4412
1	1548	4413
1	1572	4414
1	1606	4415
1	1639	4416
1	1672	4417
1	1698	4418
1	1708	4419
1	1705	4420
1	1683	4421
1	1643	4422
1	1603	4423
1	1563	4424
1	1529	4425
1	1503	4426
1	1487	4427
1	1480	4428
1	1481	4429
1	1490	4430
1	1503	4431
1	1513	4432
1	1526	4433
1	1543	4434
1	1559	4435
1	1581	4436
1	1603	4437
1	1626	4438
1	1647	4439
1	1643	4440
1	1634	4441
1	1611	4442
1	1592	4443
1	1573	4444
1	1560	4445
1	1553	4446
1	1553	4447
1	1563	4448
1	1580	4449
1	1595	4450
1	1615	4451
1	1633	4452
1	1647	4453
1	1670	4454
1	1697	4455
1	1721	4456
1	1746	4457
1	1753	4458
1	1752	4459
1	1738	4460
1	1707	4461
1	1660	4462
1	1608	4463
1	1564	4464
1	1526	4465
1	1495	4466
1	1476	4467
1	1463	4468
1	1463	4469
1	1469	4470
1	1481	4471
1	1498	4472
1	1517	4473
1	1544	4474
1	1589	4475
1	1633	4476
1	1670	4477
1	1700	4478
1	1716	4479
1	1716	4480
1	1695	4481
1	1661	4482
1	1625	4483
1	1596	4484
1	1579	4485
1	1556	4486
1	1544	4487
1	1533	4488
1	1530	4489
1	1541	4490
1	1553	4491
1	1566	4492
1	1582	4493
1	1607	4494
1	1633	4495
1	1657	4496
1	1683	4497
1	1697	4498
1	1703	4499
1	1688	4500
1	1670	4501
1	1633	4502
1	1589	4503
1	1554	4504
1	1529	4505
1	1508	4506
1	1502	4507
1	1503	4508
1	1516	4509
1	1529	4510
1	1546	4511
1	1566	4512
1	1587	4513
1	1620	4514
1	1652	4515
1	1686	4516
1	1719	4517
1	1751	4518
1	1767	4519
1	1778	4520
1	1770	4521
1	1742	4522
1	1712	4523
1	1686	4524
1	1647	4525
1	1610	4526
1	1581	4527
1	1557	4528
1	1544	4529
1	1537	4530
1	1535	4531
1	1542	4532
1	1554	4533
1	1576	4534
1	1608	4535
1	1651	4536
1	1688	4537
1	1716	4538
1	1741	4539
1	1738	4560
1	1730	4561
1	1706	4562
1	1672	4563
1	1638	4564
1	1607	4565
1	1575	4566
1	1552	4567
1	1539	4568
1	1537	4569
1	1539	4570
1	1544	4571
1	1555	4572
1	1566	4573
1	1589	4574
1	1616	4575
1	1651	4576
1	1686	4577
1	1712	4578
1	1721	4579
1	1746	4540
1	1740	4541
1	1726	4542
1	1707	4543
1	1685	4544
1	1647	4545
1	1622	4546
1	1603	4547
1	1585	4548
1	1575	4549
1	1571	4550
1	1562	4551
1	1560	4552
1	1570	4553
1	1594	4554
1	1626	4555
1	1665	4556
1	1701	4557
1	1728	4558
1	1742	4559
1	1722	4580
1	1703	4581
1	1679	4582
1	1647	4583
1	1620	4584
1	1595	4585
1	1574	4586
1	1555	4587
1	1544	4588
1	1546	4589
1	1549	4590
1	1561	4591
1	1576	4592
1	1591	4593
1	1616	4594
1	1652	4595
1	1687	4596
1	1717	4597
1	1738	4598
1	1749	4599
1	1749	4600
1	1742	4601
1	1721	4602
1	1690	4603
1	1660	4604
1	1624	4605
1	1596	4606
1	1574	4607
1	1559	4608
1	1555	4609
1	1563	4610
1	1569	4611
1	1580	4612
1	1594	4613
1	1618	4614
1	1649	4615
1	1685	4616
1	1715	4617
1	1742	4618
1	1764	4619
1	1761	4620
1	1749	4621
1	1717	4622
1	1680	4623
1	1638	4624
1	1599	4625
1	1569	4626
1	1539	4627
1	1508	4628
1	1505	4629
1	1511	4630
1	1529	4631
1	1555	4632
1	1587	4633
1	1631	4634
1	1672	4635
1	1710	4636
1	1749	4637
1	1773	4638
1	1789	4639
1	1780	4640
1	1764	4641
1	1738	4642
1	1711	4643
1	1682	4644
1	1652	4645
1	1627	4646
1	1608	4647
1	1603	4648
1	1607	4649
1	1612	4650
1	1622	4651
1	1634	4652
1	1647	4653
1	1665	4654
1	1706	4655
1	1745	4656
1	1781	4657
1	1813	4658
1	1829	4659
1	1831	4660
1	1817	4661
1	1782	4662
1	1738	4663
1	1700	4664
1	1656	4665
1	1625	4666
1	1597	4667
1	1571	4668
1	1556	4669
1	1555	4670
1	1556	4671
1	1564	4672
1	1580	4673
1	1607	4674
1	1656	4675
1	1714	4676
1	1780	4677
1	1843	4678
1	1891	4679
1	1906	4680
1	1896	4681
1	1869	4682
1	1832	4683
1	1796	4684
1	1766	4685
1	1734	4686
1	1707	4687
1	1688	4688
1	1683	4689
1	1686	4690
1	1699	4691
1	1714	4692
1	1741	4693
1	1778	4694
1	1827	4695
1	1859	4696
1	1890	4697
1	1906	4698
1	1908	4699
1	1901	4700
1	1879	4701
1	1843	4702
1	1795	4703
1	1748	4704
1	1699	4705
1	1647	4706
1	1607	4707
1	1580	4708
1	1564	4709
1	1555	4710
1	1567	4711
1	1585	4712
1	1611	4713
1	1651	4714
1	1701	4715
1	1746	4716
1	1785	4717
1	1822	4718
1	1847	4719
1	1748	4740
1	1731	4741
1	1707	4742
1	1680	4743
1	1658	4744
1	1646	4745
1	1634	4746
1	1621	4747
1	1611	4748
1	1610	4749
1	1611	4750
1	1626	4751
1	1641	4752
1	1661	4753
1	1693	4754
1	1736	4755
1	1773	4756
1	1814	4757
1	1839	4758
1	1850	4759
1	1856	4720
1	1843	4721
1	1796	4722
1	1756	4723
1	1714	4724
1	1685	4725
1	1659	4726
1	1641	4727
1	1634	4728
1	1634	4729
1	1646	4730
1	1654	4731
1	1660	4732
1	1664	4733
1	1686	4734
1	1703	4735
1	1729	4736
1	1752	4737
1	1764	4738
1	1764	4739
1	1855	4760
1	1838	4761
1	1802	4762
1	1760	4763
1	1715	4764
1	1683	4765
1	1652	4766
1	1635	4767
1	1626	4768
1	1620	4769
1	1608	4770
1	1607	4771
1	1608	4772
1	1617	4773
1	1641	4774
1	1685	4775
1	1726	4776
1	1764	4777
1	1792	4778
1	1814	4779
1	1883	4800
1	1885	4801
1	1877	4802
1	1855	4803
1	1826	4804
1	1791	4805
1	1764	4806
1	1746	4807
1	1741	4808
1	1751	4809
1	1770	4810
1	1809	4811
1	1852	4812
1	1904	4813
1	1970	4814
1	2043	4815
1	2105	4816
1	2170	4817
1	2215	4818
1	2260	4819
1	1814	4780
1	1809	4781
1	1791	4782
1	1764	4783
1	1737	4784
1	1712	4785
1	1688	4786
1	1670	4787
1	1651	4788
1	1643	4789
1	1642	4790
1	1644	4791
1	1648	4792
1	1661	4793
1	1684	4794
1	1713	4795
1	1753	4796
1	1795	4797
1	1836	4798
1	1868	4799
1	2287	4820
1	2292	4821
1	2274	4822
1	2240	4823
1	2207	4824
1	2157	4825
1	2112	4826
1	2066	4827
1	2026	4828
1	1998	4829
1	1962	4830
1	1933	4831
1	1907	4832
1	1886	4833
1	1877	4834
1	1881	4835
1	1895	4836
1	1904	4837
1	1908	4838
1	1913	4839
1	1899	4840
1	1875	4841
1	1844	4842
1	1801	4843
1	1760	4844
1	1705	4845
1	1674	4846
1	1644	4847
1	1626	4848
1	1625	4849
1	1634	4850
1	1646	4851
1	1656	4852
1	1671	4853
1	1706	4854
1	1749	4855
1	1793	4856
1	1842	4857
1	1875	4858
1	1900	4859
1	1900	4860
1	1893	4861
1	1869	4862
1	1832	4863
1	1792	4864
1	1762	4865
1	1726	4866
1	1694	4867
1	1670	4868
1	1651	4869
1	1636	4870
1	1629	4871
1	1625	4872
1	1625	4873
1	1645	4874
1	1674	4875
1	1710	4876
1	1746	4877
1	1777	4878
1	1793	4879
1	1811	4880
1	1803	4881
1	1791	4882
1	1775	4883
1	1756	4884
1	1735	4885
1	1713	4886
1	1703	4887
1	1697	4888
1	1699	4889
1	1701	4890
1	1710	4891
1	1716	4892
1	1725	4893
1	1741	4894
1	1767	4895
1	1796	4896
1	1829	4897
1	1845	4898
1	1856	4899
1	1856	4900
1	1847	4901
1	1831	4902
1	1791	4903
1	1762	4904
1	1727	4905
1	1704	4906
1	1688	4907
1	1678	4908
1	1675	4909
1	1678	4910
1	1683	4911
1	1686	4912
1	1691	4913
1	1715	4914
1	1746	4915
1	1787	4916
1	1823	4917
1	1852	4918
1	1873	4919
1	1875	4920
1	1870	4921
1	1851	4922
1	1821	4923
1	1790	4924
1	1765	4925
1	1744	4926
1	1730	4927
1	1714	4928
1	1715	4929
1	1714	4930
1	1724	4931
1	1744	4932
1	1764	4933
1	1800	4934
1	1843	4935
1	1882	4936
1	1917	4937
1	1942	4938
1	1949	4939
1	1935	4940
1	1908	4941
1	1863	4942
1	1818	4943
1	1766	4944
1	1728	4945
1	1698	4946
1	1680	4947
1	1662	4948
1	1657	4949
1	1652	4950
1	1651	4951
1	1655	4952
1	1659	4953
1	1674	4954
1	1701	4955
1	1738	4956
1	1779	4957
1	1822	4958
1	1852	4959
1	1869	4960
1	1877	4961
1	1870	4962
1	1852	4963
1	1834	4964
1	1813	4965
1	1808	4966
1	1811	4967
1	1815	4968
1	1818	4969
1	1831	4970
1	1841	4971
1	1849	4972
1	1859	4973
1	1881	4974
1	1909	4975
1	1935	4976
1	1962	4977
1	1981	4978
1	1989	4979
1	1974	4980
1	1952	4981
1	1922	4982
1	1880	4983
1	1843	4984
1	1813	4985
1	1780	4986
1	1755	4987
1	1738	4988
1	1724	4989
1	1723	4990
1	1733	4991
1	1751	4992
1	1768	4993
1	1803	4994
1	1855	4995
1	1895	4996
1	1945	4997
1	1980	4998
1	2012	4999
1	2036	5000
1	2039	5001
1	2026	5002
1	2000	5003
1	1974	5004
1	1949	5005
1	1922	5006
1	1898	5007
1	1877	5008
1	1864	5009
1	1844	5010
1	1840	5011
1	1833	5012
1	1835	5013
1	1845	5014
1	1880	5015
1	1917	5016
1	1958	5017
1	1992	5018
1	2017	5019
1	2093	5040
1	2089	5041
1	2068	5042
1	2038	5043
1	2006	5044
1	1983	5045
1	1955	5046
1	1935	5047
1	1922	5048
1	1918	5049
1	1914	5050
1	1910	5051
1	1908	5052
1	1908	5053
1	1916	5054
1	1922	5055
1	1935	5056
1	1951	5057
1	1962	5058
1	1973	5059
1	2026	5020
1	2019	5021
1	1993	5022
1	1969	5023
1	1936	5024
1	1901	5025
1	1866	5026
1	1835	5027
1	1809	5028
1	1791	5029
1	1788	5030
1	1796	5031
1	1820	5032
1	1847	5033
1	1890	5034
1	1935	5035
1	1982	5036
1	2026	5037
1	2060	5038
1	2084	5039
1	1978	5060
1	1970	5061
1	1949	5062
1	1922	5063
1	1895	5064
1	1872	5065
1	1854	5066
1	1836	5067
1	1823	5068
1	1818	5069
1	1811	5070
1	1803	5071
1	1812	5072
1	1817	5073
1	1834	5074
1	1868	5075
1	1901	5076
1	1939	5077
1	1973	5078
1	1999	5079
1	2011	5080
1	2009	5081
1	1983	5082
1	1948	5083
1	1903	5084
1	1856	5085
1	1811	5086
1	1763	5087
1	1723	5088
1	1687	5089
1	1664	5090
1	1643	5091
1	1629	5092
1	1625	5093
1	1634	5094
1	1656	5095
1	1685	5096
1	1713	5097
1	1740	5098
1	1764	5099
1	1764	5100
1	1760	5101
1	1747	5102
1	1734	5103
1	1726	5104
1	1728	5105
1	1733	5106
1	1742	5107
1	1751	5108
1	1754	5109
1	1760	5110
1	1757	5111
1	1755	5112
1	1755	5113
1	1758	5114
1	1762	5115
1	1777	5116
1	1796	5117
1	1811	5118
1	1814	5119
1	1809	5120
1	1787	5121
1	1751	5122
1	1723	5123
1	1699	5124
1	1665	5125
1	1645	5126
1	1633	5127
1	1625	5128
1	1625	5129
1	1628	5130
1	1639	5131
1	1660	5132
1	1679	5133
1	1710	5134
1	1744	5135
1	1782	5136
1	1817	5137
1	1842	5138
1	1857	5139
1	1855	5140
1	1835	5141
1	1796	5142
1	1751	5143
1	1706	5144
1	1652	5145
1	1625	5146
1	1605	5147
1	1594	5148
1	1598	5149
1	1620	5150
1	1639	5151
1	1662	5152
1	1686	5153
1	1712	5154
1	1741	5155
1	1774	5156
1	1813	5157
1	1844	5158
1	1862	5159
1	1856	5160
1	1843	5161
1	1814	5162
1	1769	5163
1	1726	5164
1	1693	5165
1	1661	5166
1	1634	5167
1	1613	5168
1	1598	5169
1	1593	5170
1	1596	5171
1	1611	5172
1	1634	5173
1	1665	5174
1	1705	5175
1	1746	5176
1	1799	5177
1	1844	5178
1	1869	5179
1	1886	5180
1	1878	5181
1	1853	5182
1	1817	5183
1	1775	5184
1	1738	5185
1	1703	5186
1	1673	5187
1	1646	5188
1	1623	5189
1	1603	5190
1	1594	5191
1	1587	5192
1	1589	5193
1	1607	5194
1	1641	5195
1	1676	5196
1	1710	5197
1	1736	5198
1	1747	5199
1	1746	5200
1	1736	5201
1	1712	5202
1	1687	5203
1	1664	5204
1	1643	5205
1	1634	5206
1	1634	5207
1	1638	5208
1	1644	5209
1	1660	5210
1	1682	5211
1	1700	5212
1	1724	5213
1	1750	5214
1	1780	5215
1	1812	5216
1	1836	5217
1	1855	5218
1	1856	5219
1	1841	5220
1	1821	5221
1	1785	5222
1	1742	5223
1	1707	5224
1	1665	5225
1	1633	5226
1	1605	5227
1	1584	5228
1	1581	5229
1	1587	5230
1	1603	5231
1	1624	5232
1	1647	5233
1	1679	5234
1	1712	5235
1	1746	5236
1	1778	5237
1	1803	5238
1	1823	5239
1	1827	5240
1	1828	5241
1	1815	5242
1	1787	5243
1	1752	5244
1	1722	5245
1	1696	5246
1	1670	5247
1	1651	5248
1	1639	5249
1	1623	5250
1	1615	5251
1	1616	5252
1	1619	5253
1	1634	5254
1	1660	5255
1	1697	5256
1	1736	5257
1	1769	5258
1	1796	5259
1	1815	5260
1	1812	5261
1	1793	5262
1	1765	5263
1	1739	5264
1	1701	5265
1	1678	5266
1	1658	5267
1	1638	5268
1	1623	5269
1	1622	5270
1	1624	5271
1	1634	5272
1	1641	5273
1	1659	5274
1	1685	5275
1	1712	5276
1	1740	5277
1	1762	5278
1	1777	5279
1	1769	5280
1	1764	5281
1	1746	5282
1	1725	5283
1	1710	5284
1	1704	5285
1	1697	5286
1	1696	5287
1	1692	5288
1	1695	5289
1	1695	5290
1	1690	5291
1	1688	5292
1	1694	5293
1	1710	5294
1	1738	5295
1	1765	5296
1	1814	5297
1	1845	5298
1	1869	5299
1	1893	5300
1	1893	5301
1	1872	5302
1	1843	5303
1	1803	5304
1	1764	5305
1	1720	5306
1	1682	5307
1	1647	5308
1	1619	5309
1	1593	5310
1	1584	5311
1	1585	5312
1	1598	5313
1	1626	5314
1	1668	5315
1	1712	5316
1	1760	5317
1	1800	5318
1	1833	5319
1	1762	5340
1	1751	5341
1	1725	5342
1	1693	5343
1	1658	5344
1	1632	5345
1	1607	5346
1	1595	5347
1	1590	5348
1	1589	5349
1	1595	5350
1	1609	5351
1	1629	5352
1	1647	5353
1	1667	5354
1	1687	5355
1	1705	5356
1	1730	5357
1	1753	5358
1	1770	5359
1	1849	5320
1	1845	5321
1	1819	5322
1	1788	5323
1	1751	5324
1	1715	5325
1	1684	5326
1	1659	5327
1	1637	5328
1	1624	5329
1	1616	5330
1	1621	5331
1	1633	5332
1	1642	5333
1	1665	5334
1	1688	5335
1	1716	5336
1	1743	5337
1	1764	5338
1	1775	5339
1	1791	5360
1	1799	5361
1	1795	5362
1	1783	5363
1	1769	5364
1	1755	5365
1	1740	5366
1	1728	5367
1	1716	5368
1	1714	5369
1	1717	5370
1	1732	5371
1	1751	5372
1	1769	5373
1	1791	5374
1	1832	5375
1	1869	5376
1	1913	5377
1	1948	5378
1	1965	5379
1	1968	5380
1	1954	5381
1	1917	5382
1	1877	5383
1	1832	5384
1	1783	5385
1	1741	5386
1	1710	5387
1	1684	5388
1	1664	5389
1	1657	5390
1	1647	5391
1	1647	5392
1	1647	5393
1	1661	5394
1	1685	5395
1	1714	5396
1	1751	5397
1	1780	5398
1	1800	5399
1	1796	5400
1	1788	5401
1	1760	5402
1	1728	5403
1	1693	5404
1	1661	5405
1	1633	5406
1	1603	5407
1	1581	5408
1	1572	5409
1	1567	5410
1	1567	5411
1	1568	5412
1	1574	5413
1	1589	5414
1	1611	5415
1	1634	5416
1	1660	5417
1	1680	5418
1	1686	5419
1	1688	5420
1	1681	5421
1	1657	5422
1	1634	5423
1	1607	5424
1	1574	5425
1	1553	5426
1	1543	5427
1	1547	5428
1	1559	5429
1	1579	5430
1	1596	5431
1	1620	5432
1	1644	5433
1	1673	5434
1	1707	5435
1	1751	5436
1	1786	5437
1	1815	5438
1	1837	5439
1	1842	5440
1	1839	5441
1	1817	5442
1	1780	5443
1	1738	5444
1	1683	5445
1	1652	5446
1	1621	5447
1	1597	5448
1	1581	5449
1	1580	5450
1	1574	5451
1	1579	5452
1	1589	5453
1	1608	5454
1	1642	5455
1	1677	5456
1	1710	5457
1	1734	5458
1	1749	5459
1	1743	5460
1	1737	5461
1	1718	5462
1	1693	5463
1	1664	5464
1	1643	5465
1	1617	5466
1	1602	5467
1	1593	5468
1	1593	5469
1	1596	5470
1	1605	5471
1	1610	5472
1	1616	5473
1	1628	5474
1	1644	5475
1	1668	5476
1	1698	5477
1	1719	5478
1	1737	5479
1	1751	5480
1	1744	5481
1	1726	5482
1	1698	5483
1	1664	5484
1	1639	5485
1	1616	5486
1	1602	5487
1	1596	5488
1	1599	5489
1	1609	5490
1	1626	5491
1	1658	5492
1	1694	5493
1	1746	5494
1	1818	5495
1	1890	5496
1	1963	5497
1	2039	5498
1	2106	5499
1	2156	5500
1	2183	5501
1	2189	5502
1	2183	5503
1	2171	5504
1	2148	5505
1	2131	5506
1	2106	5507
1	2089	5508
1	2075	5509
1	2073	5510
1	2065	5511
1	2058	5512
1	2051	5513
1	2041	5514
1	2029	5515
1	2021	5516
1	2007	5517
1	1991	5518
1	1971	5519
1	1930	5520
1	1899	5521
1	1854	5522
1	1792	5523
1	1731	5524
1	1672	5525
1	1621	5526
1	1577	5527
1	1539	5528
1	1514	5529
1	1503	5530
1	1507	5531
1	1524	5532
1	1544	5533
1	1576	5534
1	1611	5535
1	1651	5536
1	1690	5537
1	1728	5538
1	1751	5539
1	1762	5540
1	1769	5541
1	1755	5542
1	1733	5543
1	1698	5544
1	1664	5545
1	1639	5546
1	1622	5547
1	1608	5548
1	1603	5549
1	1597	5550
1	1599	5551
1	1607	5552
1	1611	5553
1	1625	5554
1	1652	5555
1	1675	5556
1	1697	5557
1	1712	5558
1	1725	5559
1	1724	5560
1	1714	5561
1	1694	5562
1	1670	5563
1	1647	5564
1	1613	5565
1	1593	5566
1	1576	5567
1	1558	5568
1	1554	5569
1	1559	5570
1	1567	5571
1	1583	5572
1	1598	5573
1	1620	5574
1	1647	5575
1	1682	5576
1	1713	5577
1	1751	5578
1	1781	5579
1	1790	5580
1	1788	5581
1	1772	5582
1	1744	5583
1	1715	5584
1	1693	5585
1	1667	5586
1	1647	5587
1	1634	5588
1	1634	5589
1	1642	5590
1	1655	5591
1	1670	5592
1	1687	5593
1	1712	5594
1	1740	5595
1	1760	5596
1	1782	5597
1	1791	5598
1	1791	5599
1	1778	5600
1	1750	5601
1	1712	5602
1	1670	5603
1	1631	5604
1	1596	5605
1	1569	5606
1	1553	5607
1	1541	5608
1	1535	5609
1	1531	5610
1	1535	5611
1	1542	5612
1	1556	5613
1	1584	5614
1	1628	5615
1	1671	5616
1	1712	5617
1	1752	5618
1	1787	5619
1	1808	5640
1	1815	5641
1	1803	5642
1	1782	5643
1	1751	5644
1	1721	5645
1	1695	5646
1	1669	5647
1	1648	5648
1	1634	5649
1	1631	5650
1	1631	5651
1	1636	5652
1	1647	5653
1	1670	5654
1	1711	5655
1	1750	5656
1	1800	5657
1	1845	5658
1	1878	5659
1	1812	5620
1	1823	5621
1	1816	5622
1	1793	5623
1	1775	5624
1	1752	5625
1	1734	5626
1	1715	5627
1	1701	5628
1	1687	5629
1	1670	5630
1	1656	5631
1	1644	5632
1	1634	5633
1	1641	5634
1	1655	5635
1	1681	5636
1	1712	5637
1	1746	5638
1	1779	5639
1	1901	5660
1	1900	5661
1	1880	5662
1	1845	5663
1	1808	5664
1	1764	5665
1	1734	5666
1	1708	5667
1	1687	5668
1	1674	5669
1	1660	5670
1	1652	5671
1	1651	5672
1	1656	5673
1	1665	5674
1	1696	5675
1	1726	5676
1	1757	5677
1	1791	5678
1	1822	5679
1	1841	5680
1	1839	5681
1	1818	5682
1	1782	5683
1	1741	5684
1	1692	5685
1	1661	5686
1	1635	5687
1	1622	5688
1	1623	5689
1	1636	5690
1	1659	5691
1	1686	5692
1	1716	5693
1	1751	5694
1	1793	5695
1	1845	5696
1	1892	5697
1	1923	5698
1	1952	5699
1	1956	5700
1	1950	5701
1	1934	5702
1	1895	5703
1	1845	5704
1	1800	5705
1	1756	5706
1	1721	5707
1	1695	5708
1	1679	5709
1	1674	5710
1	1682	5711
1	1697	5712
1	1712	5713
1	1732	5714
1	1760	5715
1	1791	5716
1	1837	5717
1	1873	5718
1	1905	5719
1	1931	5720
1	1940	5721
1	1922	5722
1	1897	5723
1	1869	5724
1	1836	5725
1	1796	5726
1	1770	5727
1	1755	5728
1	1743	5729
1	1737	5730
1	1730	5731
1	1733	5732
1	1738	5733
1	1754	5734
1	1779	5735
1	1818	5736
1	1849	5737
1	1869	5738
1	1883	5739
1	1891	5740
1	1894	5741
1	1886	5742
1	1863	5743
1	1831	5744
1	1773	5745
1	1744	5746
1	1712	5747
1	1687	5748
1	1671	5749
1	1660	5750
1	1660	5751
1	1656	5752
1	1652	5753
1	1664	5754
1	1686	5755
1	1720	5756
1	1757	5757
1	1787	5758
1	1800	5759
1	1801	5760
1	1800	5761
1	1788	5762
1	1764	5763
1	1735	5764
1	1705	5765
1	1667	5766
1	1630	5767
1	1593	5768
1	1569	5769
1	1554	5770
1	1545	5771
1	1544	5772
1	1551	5773
1	1563	5774
1	1584	5775
1	1608	5776
1	1647	5777
1	1683	5778
1	1715	5779
1	1749	5780
1	1769	5781
1	1782	5782
1	1770	5783
1	1746	5784
1	1714	5785
1	1674	5786
1	1626	5787
1	1581	5788
1	1541	5789
1	1492	5790
1	1475	5791
1	1454	5792
1	1450	5793
1	1458	5794
1	1489	5795
1	1528	5796
1	1578	5797
1	1629	5798
1	1679	5799
1	1717	5800
1	1741	5801
1	1747	5802
1	1735	5803
1	1708	5804
1	1664	5805
1	1634	5806
1	1598	5807
1	1571	5808
1	1553	5809
1	1543	5810
1	1542	5811
1	1536	5812
1	1530	5813
1	1535	5814
1	1550	5815
1	1572	5816
1	1603	5817
1	1633	5818
1	1647	5819
1	1643	5820
1	1632	5821
1	1606	5822
1	1567	5823
1	1529	5824
1	1491	5825
1	1470	5826
1	1452	5827
1	1449	5828
1	1450	5829
1	1461	5830
1	1477	5831
1	1501	5832
1	1516	5833
1	1535	5834
1	1557	5835
1	1583	5836
1	1612	5837
1	1638	5838
1	1654	5839
1	1656	5840
1	1652	5841
1	1638	5842
1	1625	5843
1	1606	5844
1	1581	5845
1	1554	5846
1	1531	5847
1	1520	5848
1	1513	5849
1	1507	5850
1	1508	5851
1	1514	5852
1	1521	5853
1	1529	5854
1	1546	5855
1	1575	5856
1	1602	5857
1	1630	5858
1	1651	5859
1	1665	5860
1	1665	5861
1	1646	5862
1	1611	5863
1	1576	5864
1	1543	5865
1	1507	5866
1	1485	5867
1	1467	5868
1	1458	5869
1	1462	5870
1	1466	5871
1	1477	5872
1	1496	5873
1	1524	5874
1	1564	5875
1	1607	5876
1	1649	5877
1	1685	5878
1	1712	5879
1	1718	5880
1	1713	5881
1	1693	5882
1	1660	5883
1	1620	5884
1	1581	5885
1	1555	5886
1	1525	5887
1	1495	5888
1	1476	5889
1	1463	5890
1	1458	5891
1	1458	5892
1	1462	5893
1	1476	5894
1	1503	5895
1	1538	5896
1	1581	5897
1	1623	5898
1	1655	5899
1	1669	5900
1	1675	5901
1	1661	5902
1	1634	5903
1	1607	5904
1	1580	5905
1	1552	5906
1	1528	5907
1	1507	5908
1	1494	5909
1	1490	5910
1	1481	5911
1	1482	5912
1	1479	5913
1	1485	5914
1	1505	5915
1	1532	5916
1	1562	5917
1	1592	5918
1	1607	5919
1	1615	5920
1	1616	5921
1	1602	5922
1	1589	5923
1	1574	5924
1	1564	5925
1	1561	5926
1	1559	5927
1	1558	5928
1	1556	5929
1	1559	5930
1	1565	5931
1	1574	5932
1	1581	5933
1	1598	5934
1	1621	5935
1	1649	5936
1	1675	5937
1	1691	5938
1	1694	5939
1	1690	5940
1	1670	5941
1	1639	5942
1	1603	5943
1	1557	5944
1	1524	5945
1	1495	5946
1	1478	5947
1	1476	5948
1	1485	5949
1	1502	5950
1	1524	5951
1	1544	5952
1	1569	5953
1	1593	5954
1	1624	5955
1	1649	5956
1	1675	5957
1	1698	5958
1	1708	5959
1	1741	5980
1	1736	5981
1	1712	5982
1	1674	5983
1	1633	5984
1	1587	5985
1	1546	5986
1	1508	5987
1	1481	5988
1	1461	5989
1	1451	5990
1	1459	5991
1	1466	5992
1	1476	5993
1	1497	5994
1	1527	5995
1	1568	5996
1	1611	5997
1	1660	5998
1	1697	5999
1	1710	5960
1	1691	5961
1	1661	5962
1	1626	5963
1	1584	5964
1	1548	5965
1	1517	5966
1	1492	5967
1	1481	5968
1	1480	5969
1	1485	5970
1	1485	5971
1	1498	5972
1	1510	5973
1	1533	5974
1	1579	5975
1	1624	5976
1	1673	5977
1	1713	5978
1	1738	5979
1	1725	6000
1	1729	6001
1	1716	6002
1	1686	6003
1	1641	6004
1	1594	6005
1	1555	6006
1	1509	6007
1	1469	6008
1	1441	6009
1	1426	6010
1	1422	6011
1	1424	6012
1	1435	6013
1	1449	6014
1	1476	6015
1	1508	6016
1	1555	6017
1	1602	6018
1	1644	6019
1	1682	6020
1	1701	6021
1	1698	6022
1	1686	6023
1	1662	6024
1	1625	6025
1	1585	6026
1	1550	6027
1	1521	6028
1	1502	6029
1	1490	6030
1	1485	6031
1	1490	6032
1	1494	6033
1	1504	6034
1	1531	6035
1	1567	6036
1	1607	6037
1	1655	6038
1	1697	6039
1	1759	6060
1	1738	6061
1	1710	6062
1	1672	6063
1	1630	6064
1	1594	6065
1	1555	6066
1	1514	6067
1	1481	6068
1	1455	6069
1	1438	6070
1	1426	6071
1	1424	6072
1	1430	6073
1	1447	6074
1	1476	6075
1	1508	6076
1	1554	6077
1	1600	6078
1	1643	6079
1	1728	6040
1	1744	6041
1	1755	6042
1	1752	6043
1	1738	6044
1	1719	6045
1	1693	6046
1	1671	6047
1	1654	6048
1	1636	6049
1	1628	6050
1	1625	6051
1	1622	6052
1	1626	6053
1	1634	6054
1	1655	6055
1	1679	6056
1	1711	6057
1	1738	6058
1	1755	6059
1	1680	6080
1	1697	6081
1	1693	6082
1	1668	6083
1	1641	6084
1	1607	6085
1	1572	6086
1	1539	6087
1	1512	6088
1	1489	6089
1	1472	6090
1	1458	6091
1	1454	6092
1	1461	6093
1	1474	6094
1	1503	6095
1	1534	6096
1	1571	6097
1	1603	6098
1	1624	6099
1	1633	6100
1	1629	6101
1	1609	6102
1	1582	6103
1	1550	6104
1	1516	6105
1	1481	6106
1	1459	6107
1	1445	6108
1	1442	6109
1	1446	6110
1	1459	6111
1	1472	6112
1	1482	6113
1	1503	6114
1	1537	6115
1	1574	6116
1	1615	6117
1	1654	6118
1	1686	6119
1	1706	6120
1	1699	6121
1	1682	6122
1	1643	6123
1	1595	6124
1	1544	6125
1	1508	6126
1	1474	6127
1	1440	6128
1	1427	6129
1	1424	6130
1	1435	6131
1	1450	6132
1	1472	6133
1	1492	6134
1	1520	6135
1	1543	6136
1	1580	6137
1	1613	6138
1	1647	6139
1	1667	6140
1	1665	6141
1	1652	6142
1	1629	6143
1	1594	6144
1	1564	6145
1	1534	6146
1	1510	6147
1	1493	6148
1	1485	6149
1	1481	6150
1	1476	6151
1	1484	6152
1	1498	6153
1	1519	6154
1	1553	6155
1	1590	6156
1	1623	6157
1	1654	6158
1	1674	6159
1	1686	6160
1	1695	6161
1	1697	6162
1	1695	6163
1	1693	6164
1	1701	6165
1	1710	6166
1	1728	6167
1	1755	6168
1	1791	6169
1	1844	6170
1	1887	6171
1	1926	6172
1	1965	6173
1	2007	6174
1	2056	6175
1	2107	6176
1	2150	6177
1	2176	6178
1	2174	6179
1	2155	6180
1	2102	6181
1	2044	6182
1	1974	6183
1	1899	6184
1	1832	6185
1	1751	6186
1	1685	6187
1	1633	6188
1	1592	6189
1	1566	6190
1	1551	6191
1	1546	6192
1	1549	6193
1	1555	6194
1	1580	6195
1	1596	6196
1	1622	6197
1	1636	6198
1	1646	6199
1	1647	6200
1	1643	6201
1	1628	6202
1	1599	6203
1	1567	6204
1	1539	6205
1	1510	6206
1	1482	6207
1	1463	6208
1	1445	6209
1	1439	6210
1	1436	6211
1	1448	6212
1	1464	6213
1	1490	6214
1	1530	6215
1	1577	6216
1	1626	6217
1	1672	6218
1	1710	6219
1	1737	6220
1	1746	6221
1	1728	6222
1	1706	6223
1	1665	6224
1	1628	6225
1	1592	6226
1	1562	6227
1	1540	6228
1	1526	6229
1	1518	6230
1	1514	6231
1	1517	6232
1	1523	6233
1	1542	6234
1	1568	6235
1	1594	6236
1	1629	6237
1	1660	6238
1	1690	6239
1	1715	6240
1	1718	6241
1	1712	6242
1	1689	6243
1	1657	6244
1	1617	6245
1	1583	6246
1	1546	6247
1	1514	6248
1	1489	6249
1	1475	6250
1	1464	6251
1	1461	6252
1	1463	6253
1	1481	6254
1	1520	6255
1	1558	6256
1	1607	6257
1	1655	6258
1	1688	6259
1	1717	6260
1	1727	6261
1	1725	6262
1	1711	6263
1	1686	6264
1	1661	6265
1	1646	6266
1	1632	6267
1	1623	6268
1	1621	6269
1	1622	6270
1	1613	6271
1	1613	6272
1	1615	6273
1	1621	6274
1	1641	6275
1	1664	6276
1	1688	6277
1	1711	6278
1	1725	6279
1	1729	6280
1	1724	6281
1	1703	6282
1	1665	6283
1	1623	6284
1	1581	6285
1	1546	6286
1	1516	6287
1	1490	6288
1	1472	6289
1	1466	6290
1	1472	6291
1	1490	6292
1	1521	6293
1	1555	6294
1	1603	6295
1	1649	6296
1	1690	6297
1	1722	6298
1	1738	6299
1	1739	6300
1	1721	6301
1	1695	6302
1	1660	6303
1	1618	6304
1	1581	6305
1	1555	6306
1	1533	6307
1	1528	6308
1	1529	6309
1	1543	6310
1	1564	6311
1	1594	6312
1	1625	6313
1	1655	6314
1	1692	6315
1	1722	6316
1	1755	6317
1	1785	6318
1	1808	6319
1	1830	6320
1	1827	6321
1	1797	6322
1	1772	6323
1	1742	6324
1	1703	6325
1	1665	6326
1	1634	6327
1	1609	6328
1	1594	6329
1	1584	6330
1	1585	6331
1	1593	6332
1	1607	6333
1	1626	6334
1	1657	6335
1	1692	6336
1	1728	6337
1	1760	6338
1	1785	6339
1	1790	6340
1	1778	6341
1	1753	6342
1	1717	6343
1	1677	6344
1	1638	6345
1	1598	6346
1	1567	6347
1	1540	6348
1	1517	6349
1	1503	6350
1	1503	6351
1	1513	6352
1	1533	6353
1	1566	6354
1	1607	6355
1	1652	6356
1	1698	6357
1	1738	6358
1	1773	6359
1	1796	6360
1	1794	6361
1	1786	6362
1	1766	6363
1	1741	6364
1	1723	6365
1	1700	6366
1	1686	6367
1	1673	6368
1	1665	6369
1	1662	6370
1	1668	6371
1	1675	6372
1	1685	6373
1	1699	6374
1	1724	6375
1	1746	6376
1	1778	6377
1	1817	6378
1	1851	6379
1	1882	6380
1	1895	6381
1	1893	6382
1	1868	6383
1	1843	6384
1	1808	6385
1	1767	6386
1	1738	6387
1	1718	6388
1	1706	6389
1	1701	6390
1	1693	6391
1	1693	6392
1	1700	6393
1	1712	6394
1	1746	6395
1	1778	6396
1	1817	6397
1	1843	6398
1	1862	6399
1	1871	6400
1	1869	6401
1	1856	6402
1	1827	6403
1	1790	6404
1	1755	6405
1	1714	6406
1	1687	6407
1	1663	6408
1	1646	6409
1	1632	6410
1	1634	6411
1	1633	6412
1	1634	6413
1	1643	6414
1	1661	6415
1	1686	6416
1	1712	6417
1	1741	6418
1	1764	6419
1	1769	6440
1	1760	6441
1	1737	6442
1	1703	6443
1	1660	6444
1	1616	6445
1	1571	6446
1	1529	6447
1	1499	6448
1	1476	6449
1	1468	6450
1	1450	6451
1	1445	6452
1	1448	6453
1	1463	6454
1	1503	6455
1	1553	6456
1	1613	6457
1	1672	6458
1	1726	6459
1	1782	6420
1	1774	6421
1	1759	6422
1	1724	6423
1	1679	6424
1	1638	6425
1	1602	6426
1	1571	6427
1	1566	6428
1	1560	6429
1	1564	6430
1	1576	6431
1	1596	6432
1	1620	6433
1	1640	6434
1	1665	6435
1	1686	6436
1	1712	6437
1	1736	6438
1	1754	6439
1	1651	6500
1	1635	6501
1	1607	6502
1	1564	6503
1	1514	6504
1	1468	6505
1	1437	6506
1	1423	6507
1	1424	6508
1	1426	6509
1	1441	6510
1	1454	6511
1	1476	6512
1	1491	6513
1	1504	6514
1	1529	6515
1	1549	6516
1	1573	6517
1	1592	6518
1	1602	6519
1	1759	6460
1	1767	6461
1	1761	6462
1	1731	6463
1	1686	6464
1	1634	6465
1	1580	6466
1	1530	6467
1	1492	6468
1	1465	6469
1	1453	6470
1	1467	6471
1	1485	6472
1	1503	6473
1	1526	6474
1	1554	6475
1	1584	6476
1	1620	6477
1	1651	6478
1	1672	6479
1	1683	6480
1	1669	6481
1	1651	6482
1	1625	6483
1	1589	6484
1	1559	6485
1	1530	6486
1	1506	6487
1	1492	6488
1	1490	6489
1	1502	6490
1	1515	6491
1	1530	6492
1	1550	6493
1	1574	6494
1	1597	6495
1	1611	6496
1	1630	6497
1	1642	6498
1	1647	6499
1	1660	6540
1	1644	6541
1	1621	6542
1	1589	6543
1	1550	6544
1	1512	6545
1	1480	6546
1	1449	6547
1	1429	6548
1	1420	6549
1	1422	6550
1	1424	6551
1	1430	6552
1	1442	6553
1	1463	6554
1	1497	6555
1	1530	6556
1	1575	6557
1	1621	6558
1	1660	6559
1	1607	6520
1	1607	6521
1	1599	6522
1	1569	6523
1	1538	6524
1	1511	6525
1	1484	6526
1	1461	6527
1	1451	6528
1	1455	6529
1	1467	6530
1	1481	6531
1	1495	6532
1	1511	6533
1	1531	6534
1	1557	6535
1	1587	6536
1	1615	6537
1	1641	6538
1	1656	6539
1	1686	6560
1	1697	6561
1	1697	6562
1	1686	6563
1	1659	6564
1	1629	6565
1	1590	6566
1	1549	6567
1	1512	6568
1	1485	6569
1	1471	6570
1	1453	6571
1	1451	6572
1	1460	6573
1	1471	6574
1	1503	6575
1	1535	6576
1	1575	6577
1	1611	6578
1	1635	6579
1	1695	6600
1	1687	6601
1	1679	6602
1	1651	6603
1	1613	6604
1	1582	6605
1	1555	6606
1	1535	6607
1	1529	6608
1	1531	6609
1	1538	6610
1	1549	6611
1	1564	6612
1	1581	6613
1	1603	6614
1	1631	6615
1	1652	6616
1	1676	6617
1	1700	6618
1	1713	6619
1	1643	6580
1	1641	6581
1	1631	6582
1	1611	6583
1	1589	6584
1	1565	6585
1	1538	6586
1	1512	6587
1	1493	6588
1	1485	6589
1	1490	6590
1	1494	6591
1	1500	6592
1	1509	6593
1	1523	6594
1	1546	6595
1	1581	6596
1	1623	6597
1	1659	6598
1	1684	6599
1	1717	6620
1	1709	6621
1	1675	6622
1	1625	6623
1	1579	6624
1	1529	6625
1	1490	6626
1	1467	6627
1	1452	6628
1	1449	6629
1	1450	6630
1	1458	6631
1	1470	6632
1	1481	6633
1	1499	6634
1	1525	6635
1	1555	6636
1	1590	6637
1	1629	6638
1	1665	6639
1	1773	6660
1	1757	6661
1	1726	6662
1	1680	6663
1	1623	6664
1	1573	6665
1	1526	6666
1	1484	6667
1	1456	6668
1	1448	6669
1	1442	6670
1	1449	6671
1	1463	6672
1	1482	6673
1	1505	6674
1	1541	6675
1	1579	6676
1	1622	6677
1	1665	6678
1	1703	6679
1	1682	6640
1	1681	6641
1	1661	6642
1	1633	6643
1	1596	6644
1	1566	6645
1	1530	6646
1	1503	6647
1	1486	6648
1	1482	6649
1	1487	6650
1	1503	6651
1	1528	6652
1	1555	6653
1	1582	6654
1	1616	6655
1	1652	6656
1	1693	6657
1	1734	6658
1	1761	6659
1	1734	6680
1	1742	6681
1	1738	6682
1	1711	6683
1	1667	6684
1	1620	6685
1	1571	6686
1	1525	6687
1	1490	6688
1	1472	6689
1	1467	6690
1	1475	6691
1	1491	6692
1	1515	6693
1	1540	6694
1	1581	6695
1	1625	6696
1	1677	6697
1	1725	6698
1	1760	6699
1	1778	6700
1	1780	6701
1	1764	6702
1	1737	6703
1	1700	6704
1	1665	6705
1	1628	6706
1	1599	6707
1	1582	6708
1	1579	6709
1	1578	6710
1	1590	6711
1	1595	6712
1	1597	6713
1	1602	6714
1	1609	6715
1	1634	6716
1	1670	6717
1	1703	6718
1	1728	6719
1	1740	6720
1	1733	6721
1	1712	6722
1	1686	6723
1	1648	6724
1	1610	6725
1	1581	6726
1	1546	6727
1	1531	6728
1	1515	6729
1	1499	6730
1	1490	6731
1	1488	6732
1	1486	6733
1	1490	6734
1	1503	6735
1	1518	6736
1	1551	6737
1	1584	6738
1	1611	6739
1	1630	6740
1	1638	6741
1	1636	6742
1	1631	6743
1	1607	6744
1	1585	6745
1	1557	6746
1	1529	6747
1	1501	6748
1	1476	6749
1	1461	6750
1	1441	6751
1	1431	6752
1	1426	6753
1	1429	6754
1	1452	6755
1	1502	6756
1	1557	6757
1	1621	6758
1	1673	6759
1	1707	6760
1	1722	6761
1	1724	6762
1	1706	6763
1	1675	6764
1	1638	6765
1	1590	6766
1	1549	6767
1	1507	6768
1	1475	6769
1	1450	6770
1	1440	6771
1	1446	6772
1	1459	6773
1	1476	6774
1	1503	6775
1	1541	6776
1	1578	6777
1	1608	6778
1	1625	6779
1	1623	6780
1	1616	6781
1	1607	6782
1	1595	6783
1	1581	6784
1	1571	6785
1	1554	6786
1	1530	6787
1	1511	6788
1	1499	6789
1	1495	6790
1	1503	6791
1	1514	6792
1	1533	6793
1	1557	6794
1	1595	6795
1	1633	6796
1	1674	6797
1	1717	6798
1	1755	6799
1	1778	6800
1	1792	6801
1	1789	6802
1	1764	6803
1	1727	6804
1	1682	6805
1	1630	6806
1	1577	6807
1	1531	6808
1	1501	6809
1	1477	6810
1	1459	6811
1	1458	6812
1	1464	6813
1	1477	6814
1	1510	6815
1	1555	6816
1	1609	6817
1	1675	6818
1	1738	6819
1	1791	6820
1	1840	6821
1	1865	6822
1	1873	6823
1	1881	6824
1	1888	6825
1	1895	6826
1	1908	6827
1	1924	6828
1	1948	6829
1	1967	6830
1	1976	6831
1	1985	6832
1	1989	6833
1	2000	6834
1	2005	6835
1	2014	6836
1	2025	6837
1	2025	6838
1	2013	6839
1	1985	6840
1	1942	6841
1	1895	6842
1	1837	6843
1	1764	6844
1	1699	6845
1	1647	6846
1	1596	6847
1	1556	6848
1	1526	6849
1	1503	6850
1	1492	6851
1	1499	6852
1	1517	6853
1	1543	6854
1	1584	6855
1	1620	6856
1	1661	6857
1	1699	6858
1	1726	6859
1	1742	6860
1	1738	6861
1	1721	6862
1	1690	6863
1	1647	6864
1	1607	6865
1	1566	6866
1	1530	6867
1	1503	6868
1	1479	6869
1	1468	6870
1	1454	6871
1	1462	6872
1	1478	6873
1	1503	6874
1	1545	6875
1	1592	6876
1	1645	6877
1	1703	6878
1	1752	6879
1	1780	6880
1	1791	6881
1	1782	6882
1	1754	6883
1	1710	6884
1	1659	6885
1	1606	6886
1	1554	6887
1	1513	6888
1	1480	6889
1	1465	6890
1	1451	6891
1	1450	6892
1	1456	6893
1	1474	6894
1	1500	6895
1	1531	6896
1	1572	6897
1	1607	6898
1	1638	6899
1	1660	6900
1	1661	6901
1	1657	6902
1	1636	6903
1	1611	6904
1	1584	6905
1	1566	6906
1	1547	6907
1	1539	6908
1	1535	6909
1	1541	6910
1	1542	6911
1	1543	6912
1	1543	6913
1	1542	6914
1	1557	6915
1	1582	6916
1	1620	6917
1	1654	6918
1	1680	6919
1	1704	6920
1	1711	6921
1	1700	6922
1	1686	6923
1	1666	6924
1	1634	6925
1	1600	6926
1	1567	6927
1	1542	6928
1	1528	6929
1	1525	6930
1	1529	6931
1	1537	6932
1	1548	6933
1	1561	6934
1	1585	6935
1	1620	6936
1	1656	6937
1	1687	6938
1	1724	6939
1	1739	6940
1	1747	6941
1	1737	6942
1	1706	6943
1	1662	6944
1	1620	6945
1	1579	6946
1	1548	6947
1	1530	6948
1	1526	6949
1	1531	6950
1	1555	6951
1	1580	6952
1	1598	6953
1	1611	6954
1	1630	6955
1	1654	6956
1	1684	6957
1	1712	6958
1	1734	6959
1	1778	6980
1	1775	6981
1	1764	6982
1	1739	6983
1	1708	6984
1	1678	6985
1	1652	6986
1	1632	6987
1	1617	6988
1	1603	6989
1	1589	6990
1	1572	6991
1	1563	6992
1	1566	6993
1	1573	6994
1	1600	6995
1	1634	6996
1	1675	6997
1	1718	6998
1	1753	6999
1	1751	6960
1	1751	6961
1	1744	6962
1	1727	6963
1	1700	6964
1	1685	6965
1	1664	6966
1	1647	6967
1	1634	6968
1	1628	6969
1	1629	6970
1	1633	6971
1	1634	6972
1	1636	6973
1	1644	6974
1	1661	6975
1	1682	6976
1	1712	6977
1	1742	6978
1	1764	6979
1	1778	7000
1	1787	7001
1	1778	7002
1	1763	7003
1	1742	7004
1	1720	7005
1	1693	7006
1	1674	7007
1	1660	7008
1	1657	7009
1	1660	7010
1	1671	7011
1	1676	7012
1	1683	7013
1	1688	7014
1	1708	7015
1	1736	7016
1	1765	7017
1	1803	7018
1	1841	7019
1	1865	7020
1	1869	7021
1	1868	7022
1	1845	7023
1	1818	7024
1	1783	7025
1	1760	7026
1	1729	7027
1	1716	7028
1	1707	7029
1	1699	7030
1	1699	7031
1	1701	7032
1	1709	7033
1	1713	7034
1	1737	7035
1	1762	7036
1	1795	7037
1	1839	7038
1	1869	7039
1	1895	7040
1	1901	7041
1	1895	7042
1	1883	7043
1	1852	7044
1	1819	7045
1	1788	7046
1	1762	7047
1	1739	7048
1	1722	7049
1	1709	7050
1	1693	7051
1	1690	7052
1	1695	7053
1	1704	7054
1	1725	7055
1	1763	7056
1	1800	7057
1	1839	7058
1	1868	7059
1	1885	7060
1	1892	7061
1	1882	7062
1	1858	7063
1	1825	7064
1	1791	7065
1	1755	7066
1	1728	7067
1	1708	7068
1	1691	7069
1	1686	7070
1	1686	7071
1	1687	7072
1	1693	7073
1	1700	7074
1	1715	7075
1	1738	7076
1	1764	7077
1	1791	7078
1	1816	7079
1	1769	7100
1	1786	7101
1	1779	7102
1	1760	7103
1	1727	7104
1	1688	7105
1	1647	7106
1	1607	7107
1	1572	7108
1	1543	7109
1	1529	7110
1	1516	7111
1	1521	7112
1	1534	7113
1	1553	7114
1	1582	7115
1	1616	7116
1	1657	7117
1	1690	7118
1	1715	7119
1	1821	7080
1	1826	7081
1	1813	7082
1	1776	7083
1	1737	7084
1	1701	7085
1	1659	7086
1	1621	7087
1	1592	7088
1	1572	7089
1	1558	7090
1	1555	7091
1	1555	7092
1	1560	7093
1	1574	7094
1	1600	7095
1	1633	7096
1	1672	7097
1	1712	7098
1	1744	7099
1	1734	7120
1	1737	7121
1	1718	7122
1	1700	7123
1	1661	7124
1	1621	7125
1	1580	7126
1	1535	7127
1	1502	7128
1	1476	7129
1	1465	7130
1	1460	7131
1	1466	7132
1	1476	7133
1	1497	7134
1	1515	7135
1	1543	7136
1	1581	7137
1	1616	7138
1	1647	7139
1	1660	7140
1	1652	7141
1	1642	7142
1	1621	7143
1	1593	7144
1	1563	7145
1	1547	7146
1	1527	7147
1	1513	7148
1	1503	7149
1	1492	7150
1	1490	7151
1	1490	7152
1	1500	7153
1	1512	7154
1	1530	7155
1	1553	7156
1	1583	7157
1	1625	7158
1	1660	7159
1	1701	7200
1	1707	7201
1	1699	7202
1	1679	7203
1	1641	7204
1	1598	7205
1	1557	7206
1	1516	7207
1	1481	7208
1	1461	7209
1	1456	7210
1	1464	7211
1	1479	7212
1	1502	7213
1	1527	7214
1	1556	7215
1	1593	7216
1	1638	7217
1	1686	7218
1	1723	7219
1	1695	7180
1	1710	7181
1	1712	7182
1	1703	7183
1	1686	7184
1	1660	7185
1	1635	7186
1	1617	7187
1	1598	7188
1	1584	7189
1	1576	7190
1	1566	7191
1	1569	7192
1	1580	7193
1	1591	7194
1	1608	7195
1	1626	7196
1	1647	7197
1	1661	7198
1	1675	7199
1	1676	7180
1	1670	7181
1	1657	7182
1	1629	7183
1	1589	7184
1	1546	7185
1	1504	7186
1	1476	7187
1	1451	7188
1	1443	7189
1	1449	7190
1	1456	7191
1	1472	7192
1	1490	7193
1	1510	7194
1	1538	7195
1	1570	7196
1	1607	7197
1	1644	7198
1	1674	7199
1	1755	7220
1	1770	7221
1	1764	7222
1	1747	7223
1	1718	7224
1	1674	7225
1	1639	7226
1	1607	7227
1	1581	7228
1	1555	7229
1	1544	7230
1	1537	7231
1	1533	7232
1	1539	7233
1	1551	7234
1	1576	7235
1	1607	7236
1	1646	7237
1	1686	7238
1	1737	7239
1	1769	7240
1	1791	7241
1	1795	7242
1	1782	7243
1	1747	7244
1	1700	7245
1	1652	7246
1	1607	7247
1	1564	7248
1	1533	7249
1	1515	7250
1	1508	7251
1	1511	7252
1	1529	7253
1	1549	7254
1	1581	7255
1	1619	7256
1	1664	7257
1	1706	7258
1	1737	7259
1	1751	7260
1	1744	7261
1	1732	7262
1	1708	7263
1	1674	7264
1	1648	7265
1	1625	7266
1	1599	7267
1	1582	7268
1	1577	7269
1	1581	7270
1	1593	7271
1	1603	7272
1	1607	7273
1	1607	7274
1	1607	7275
1	1607	7276
1	1618	7277
1	1635	7278
1	1660	7279
1	1686	7280
1	1700	7281
1	1701	7282
1	1688	7283
1	1665	7284
1	1641	7285
1	1621	7286
1	1607	7287
1	1602	7288
1	1598	7289
1	1596	7290
1	1590	7291
1	1587	7292
1	1585	7293
1	1587	7294
1	1602	7295
1	1623	7296
1	1656	7297
1	1686	7298
1	1712	7299
1	1729	7300
1	1738	7301
1	1738	7302
1	1715	7303
1	1683	7304
1	1650	7305
1	1612	7306
1	1592	7307
1	1571	7308
1	1553	7309
1	1546	7310
1	1547	7311
1	1554	7312
1	1557	7313
1	1567	7314
1	1584	7315
1	1607	7316
1	1634	7317
1	1667	7318
1	1701	7319
1	1731	7320
1	1738	7321
1	1737	7322
1	1717	7323
1	1681	7324
1	1635	7325
1	1603	7326
1	1566	7327
1	1526	7328
1	1499	7329
1	1469	7330
1	1450	7331
1	1450	7332
1	1462	7333
1	1476	7334
1	1490	7335
1	1515	7336
1	1544	7337
1	1579	7338
1	1608	7339
1	1639	7340
1	1652	7341
1	1652	7342
1	1644	7343
1	1620	7344
1	1602	7345
1	1587	7346
1	1581	7347
1	1577	7348
1	1581	7349
1	1592	7350
1	1607	7351
1	1623	7352
1	1641	7353
1	1659	7354
1	1682	7355
1	1717	7356
1	1751	7357
1	1780	7358
1	1801	7359
1	1813	7360
1	1803	7361
1	1791	7362
1	1769	7363
1	1746	7364
1	1721	7365
1	1698	7366
1	1675	7367
1	1656	7368
1	1643	7369
1	1642	7370
1	1638	7371
1	1643	7372
1	1655	7373
1	1674	7374
1	1701	7375
1	1733	7376
1	1762	7377
1	1788	7378
1	1809	7379
1	1816	7380
1	1796	7381
1	1772	7382
1	1737	7383
1	1688	7384
1	1651	7385
1	1611	7386
1	1583	7387
1	1564	7388
1	1553	7389
1	1542	7390
1	1533	7391
1	1530	7392
1	1531	7393
1	1535	7394
1	1546	7395
1	1560	7396
1	1592	7397
1	1620	7398
1	1647	7399
1	1674	7400
1	1678	7401
1	1670	7402
1	1649	7403
1	1625	7404
1	1596	7405
1	1578	7406
1	1558	7407
1	1552	7408
1	1544	7409
1	1542	7410
1	1530	7411
1	1544	7412
1	1561	7413
1	1587	7414
1	1626	7415
1	1665	7416
1	1705	7417
1	1739	7418
1	1770	7419
1	1764	7440
1	1769	7441
1	1764	7442
1	1737	7443
1	1694	7444
1	1648	7445
1	1610	7446
1	1572	7447
1	1539	7448
1	1512	7449
1	1490	7450
1	1481	7451
1	1482	7452
1	1490	7453
1	1503	7454
1	1529	7455
1	1564	7456
1	1611	7457
1	1661	7458
1	1705	7459
1	1791	7420
1	1800	7421
1	1791	7422
1	1764	7423
1	1724	7424
1	1674	7425
1	1625	7426
1	1580	7427
1	1546	7428
1	1520	7429
1	1505	7430
1	1503	7431
1	1508	7432
1	1526	7433
1	1548	7434
1	1575	7435
1	1608	7436
1	1654	7437
1	1699	7438
1	1737	7439
1	1743	7460
1	1751	7461
1	1738	7462
1	1704	7463
1	1656	7464
1	1603	7465
1	1553	7466
1	1507	7467
1	1476	7468
1	1449	7469
1	1435	7470
1	1424	7471
1	1426	7472
1	1436	7473
1	1450	7474
1	1485	7475
1	1526	7476
1	1576	7477
1	1632	7478
1	1685	7479
1	1733	7480
1	1764	7481
1	1775	7482
1	1768	7483
1	1750	7484
1	1726	7485
1	1701	7486
1	1693	7487
1	1694	7488
1	1707	7489
1	1740	7490
1	1778	7491
1	1831	7492
1	1882	7493
1	1939	7494
1	2000	7495
1	2066	7496
1	2134	7497
1	2199	7498
1	2255	7499
1	2286	7500
1	2289	7501
1	2281	7502
1	2247	7503
1	2184	7504
1	2130	7505
1	2061	7506
1	1993	7507
1	1930	7508
1	1870	7509
1	1823	7510
1	1777	7511
1	1742	7512
1	1714	7513
1	1697	7514
1	1688	7515
1	1682	7516
1	1686	7517
1	1697	7518
1	1707	7519
1	1726	7520
1	1724	7521
1	1712	7522
1	1683	7523
1	1645	7524
1	1589	7525
1	1541	7526
1	1500	7527
1	1463	7528
1	1436	7529
1	1414	7530
1	1406	7531
1	1406	7532
1	1421	7533
1	1439	7534
1	1476	7535
1	1527	7536
1	1584	7537
1	1647	7538
1	1715	7539
1	1712	7560
1	1712	7561
1	1705	7562
1	1686	7563
1	1648	7564
1	1618	7565
1	1584	7566
1	1558	7567
1	1543	7568
1	1534	7569
1	1534	7570
1	1550	7571
1	1569	7572
1	1589	7573
1	1607	7574
1	1631	7575
1	1656	7576
1	1688	7577
1	1723	7578
1	1751	7579
1	1763	7540
1	1791	7541
1	1801	7542
1	1791	7543
1	1772	7544
1	1738	7545
1	1690	7546
1	1652	7547
1	1611	7548
1	1581	7549
1	1562	7550
1	1555	7551
1	1549	7552
1	1551	7553
1	1555	7554
1	1571	7555
1	1595	7556
1	1630	7557
1	1665	7558
1	1695	7559
1	1779	7580
1	1788	7581
1	1778	7582
1	1755	7583
1	1722	7584
1	1683	7585
1	1647	7586
1	1616	7587
1	1592	7588
1	1572	7589
1	1557	7590
1	1544	7591
1	1544	7592
1	1549	7593
1	1554	7594
1	1579	7595
1	1607	7596
1	1642	7597
1	1677	7598
1	1711	7599
1	1737	7600
1	1754	7601
1	1755	7602
1	1741	7603
1	1716	7604
1	1692	7605
1	1658	7606
1	1628	7607
1	1598	7608
1	1580	7609
1	1582	7610
1	1592	7611
1	1603	7612
1	1616	7613
1	1633	7614
1	1656	7615
1	1685	7616
1	1719	7617
1	1753	7618
1	1782	7619
1	1796	7620
1	1791	7621
1	1769	7622
1	1737	7623
1	1684	7624
1	1633	7625
1	1593	7626
1	1554	7627
1	1541	7628
1	1538	7629
1	1543	7630
1	1551	7631
1	1566	7632
1	1587	7633
1	1612	7634
1	1644	7635
1	1685	7636
1	1733	7637
1	1774	7638
1	1808	7639
1	1834	7640
1	1840	7641
1	1832	7642
1	1809	7643
1	1777	7644
1	1737	7645
1	1699	7646
1	1671	7647
1	1655	7648
1	1646	7649
1	1638	7650
1	1634	7651
1	1639	7652
1	1645	7653
1	1649	7654
1	1663	7655
1	1686	7656
1	1705	7657
1	1729	7658
1	1751	7659
1	1772	7660
1	1782	7661
1	1788	7662
1	1787	7663
1	1773	7664
1	1753	7665
1	1726	7666
1	1703	7667
1	1683	7668
1	1661	7669
1	1659	7670
1	1656	7671
1	1658	7672
1	1664	7673
1	1674	7674
1	1693	7675
1	1724	7676
1	1763	7677
1	1811	7678
1	1851	7679
1	1886	7680
1	1904	7681
1	1913	7682
1	1908	7683
1	1881	7684
1	1857	7685
1	1823	7686
1	1782	7687
1	1754	7688
1	1734	7689
1	1720	7690
1	1712	7691
1	1712	7692
1	1714	7693
1	1717	7694
1	1725	7695
1	1738	7696
1	1762	7697
1	1794	7698
1	1828	7699
1	1864	7700
1	1877	7701
1	1874	7702
1	1857	7703
1	1829	7704
1	1792	7705
1	1764	7706
1	1733	7707
1	1706	7708
1	1688	7709
1	1684	7710
1	1680	7711
1	1686	7712
1	1703	7713
1	1726	7714
1	1773	7715
1	1827	7716
1	1878	7717
1	1926	7718
1	1962	7719
1	1981	7720
1	1980	7721
1	1967	7722
1	1926	7723
1	1880	7724
1	1827	7725
1	1777	7726
1	1739	7727
1	1710	7728
1	1685	7729
1	1675	7730
1	1675	7731
1	1694	7732
1	1724	7733
1	1769	7734
1	1814	7735
1	1858	7736
1	1899	7737
1	1935	7738
1	1949	7739
1	1764	7760
1	1764	7761
1	1756	7762
1	1737	7763
1	1706	7764
1	1673	7765
1	1643	7766
1	1619	7767
1	1606	7768
1	1596	7769
1	1599	7770
1	1603	7771
1	1610	7772
1	1629	7773
1	1642	7774
1	1661	7775
1	1683	7776
1	1709	7777
1	1733	7778
1	1748	7779
1	1949	7740
1	1922	7741
1	1887	7742
1	1838	7743
1	1770	7744
1	1713	7745
1	1669	7746
1	1629	7747
1	1602	7748
1	1584	7749
1	1580	7750
1	1581	7751
1	1589	7752
1	1598	7753
1	1610	7754
1	1631	7755
1	1652	7756
1	1683	7757
1	1712	7758
1	1739	7759
1	1753	7780
1	1751	7781
1	1737	7782
1	1712	7783
1	1674	7784
1	1636	7785
1	1599	7786
1	1567	7787
1	1544	7788
1	1529	7789
1	1516	7790
1	1507	7791
1	1508	7792
1	1513	7793
1	1517	7794
1	1529	7795
1	1548	7796
1	1574	7797
1	1604	7798
1	1634	7799
1	1661	7800
1	1677	7801
1	1686	7802
1	1678	7803
1	1656	7804
1	1631	7805
1	1594	7806
1	1563	7807
1	1530	7808
1	1503	7809
1	1484	7810
1	1472	7811
1	1465	7812
1	1472	7813
1	1485	7814
1	1507	7815
1	1533	7816
1	1575	7817
1	1616	7818
1	1656	7819
1	1686	7820
1	1701	7821
1	1701	7822
1	1685	7823
1	1659	7824
1	1621	7825
1	1585	7826
1	1556	7827
1	1528	7828
1	1503	7829
1	1488	7830
1	1481	7831
1	1477	7832
1	1481	7833
1	1484	7834
1	1494	7835
1	1521	7836
1	1559	7837
1	1605	7838
1	1646	7839
1	1681	7840
1	1699	7841
1	1704	7842
1	1697	7843
1	1670	7844
1	1634	7845
1	1596	7846
1	1559	7847
1	1529	7848
1	1505	7849
1	1492	7850
1	1488	7851
1	1490	7852
1	1502	7853
1	1518	7854
1	1540	7855
1	1569	7856
1	1605	7857
1	1644	7858
1	1686	7859
1	1718	7860
1	1732	7861
1	1738	7862
1	1728	7863
1	1706	7864
1	1672	7865
1	1643	7866
1	1609	7867
1	1593	7868
1	1578	7869
1	1566	7870
1	1556	7871
1	1555	7872
1	1556	7873
1	1557	7874
1	1566	7875
1	1581	7876
1	1610	7877
1	1641	7878
1	1674	7879
1	1710	7900
1	1733	7901
1	1743	7902
1	1746	7903
1	1738	7904
1	1723	7905
1	1699	7906
1	1680	7907
1	1657	7908
1	1634	7909
1	1618	7910
1	1605	7911
1	1596	7912
1	1594	7913
1	1597	7914
1	1607	7915
1	1620	7916
1	1641	7917
1	1661	7918
1	1684	7919
1	1705	7880
1	1715	7881
1	1715	7882
1	1701	7883
1	1675	7884
1	1644	7885
1	1609	7886
1	1579	7887
1	1548	7888
1	1521	7889
1	1495	7890
1	1476	7891
1	1464	7892
1	1464	7893
1	1474	7894
1	1500	7895
1	1531	7896
1	1578	7897
1	1628	7898
1	1670	7899
1	1725	7940
1	1738	7941
1	1733	7942
1	1712	7943
1	1688	7944
1	1652	7945
1	1621	7946
1	1591	7947
1	1561	7948
1	1538	7949
1	1517	7950
1	1503	7951
1	1502	7952
1	1503	7953
1	1507	7954
1	1514	7955
1	1530	7956
1	1555	7957
1	1585	7958
1	1621	7959
1	1698	7920
1	1699	7921
1	1697	7922
1	1682	7923
1	1649	7924
1	1617	7925
1	1587	7926
1	1549	7927
1	1527	7928
1	1505	7929
1	1494	7930
1	1487	7931
1	1491	7932
1	1503	7933
1	1521	7934
1	1546	7935
1	1581	7936
1	1628	7937
1	1670	7938
1	1703	7939
1	1652	7960
1	1670	7961
1	1674	7962
1	1662	7963
1	1646	7964
1	1621	7965
1	1595	7966
1	1573	7967
1	1556	7968
1	1543	7969
1	1544	7970
1	1543	7971
1	1547	7972
1	1555	7973
1	1565	7974
1	1577	7975
1	1598	7976
1	1631	7977
1	1667	7978
1	1703	7979
1	1730	7980
1	1733	7981
1	1718	7982
1	1685	7983
1	1638	7984
1	1593	7985
1	1544	7986
1	1503	7987
1	1476	7988
1	1459	7989
1	1455	7990
1	1463	7991
1	1477	7992
1	1500	7993
1	1526	7994
1	1555	7995
1	1589	7996
1	1631	7997
1	1669	7998
1	1710	7999
1	1738	8000
1	1749	8000
1	1742	8002
1	1721	8003
1	1689	8004
1	1652	8005
1	1621	8006
1	1596	8007
1	1580	8008
1	1564	8009
1	1562	8010
1	1562	8011
1	1572	8012
1	1587	8013
1	1607	8013
1	1634	8015
1	1660	8016
1	1685	8016
1	1699	8018
1	1706	8019
1	1833	8040
1	1842	8041
1	1842	8042
1	1841	8043
1	1832	8044
1	1815	8045
1	1790	8045
1	1756	8047
1	1721	8048
1	1688	8048
1	1660	8050
1	1645	8051
1	1634	8052
1	1622	8053
1	1610	8054
1	1607	8055
1	1606	8056
1	1623	8057
1	1654	8058
1	1686	8059
1	1702	8020
1	1690	8021
1	1675	8022
1	1648	8023
1	1620	8024
1	1593	8025
1	1576	8026
1	1558	8027
1	1547	8028
1	1542	8029
1	1551	8029
1	1568	8031
1	1592	8032
1	1612	8032
1	1646	8034
1	1665	8035
1	1697	8036
1	1734	8037
1	1768	8038
1	1803	8039
1	1712	8060
1	1724	8061
1	1721	8061
1	1701	8063
1	1670	8064
1	1630	8064
1	1589	8066
1	1553	8067
1	1523	8068
1	1499	8069
1	1481	8070
1	1466	8071
1	1464	8072
1	1471	8073
1	1477	8074
1	1494	8074
1	1518	8076
1	1553	8077
1	1596	8077
1	1637	8079
1	1665	8080
1	1685	8080
1	1692	8082
1	1686	8083
1	1665	8084
1	1638	8085
1	1607	8086
1	1590	8087
1	1580	8088
1	1571	8089
1	1572	8090
1	1562	8090
1	1555	8092
1	1555	8093
1	1559	8093
1	1580	8095
1	1607	8096
1	1643	8096
1	1681	8098
1	1713	8099
1	1740	8100
1	1746	8101
1	1738	8102
1	1710	8103
1	1664	8104
1	1613	8105
1	1566	8106
1	1525	8106
1	1489	8108
1	1467	8109
1	1460	8109
1	1466	8111
1	1479	8112
1	1500	8113
1	1520	8114
1	1546	8115
1	1572	8116
1	1606	8117
1	1641	8118
1	1672	8119
1	1697	8120
1	1707	8121
1	1703	8122
1	1681	8122
1	1656	8124
1	1611	8125
1	1572	8125
1	1536	8127
1	1507	8128
1	1493	8129
1	1489	8130
1	1490	8131
1	1495	8132
1	1508	8133
1	1521	8134
1	1534	8135
1	1548	8136
1	1570	8137
1	1600	8138
1	1639	8138
1	1674	8140
1	1699	8141
1	1705	8141
1	1694	8143
1	1668	8144
1	1636	8145
1	1605	8146
1	1579	8147
1	1559	8148
1	1553	8149
1	1544	8150
1	1550	8151
1	1548	8152
1	1548	8153
1	1556	8154
1	1579	8154
1	1612	8156
1	1665	8157
1	1730	8157
1	1798	8159
1	1863	8160
1	1909	8161
1	1949	8162
1	1981	8163
1	2004	8164
1	2019	8165
1	2023	8166
1	2024	8167
1	2024	8168
1	2026	8169
1	2026	8170
1	2022	8170
1	2015	8172
1	2009	8173
1	2007	8173
1	2009	8175
1	2013	8176
1	2029	8177
1	2044	8178
1	2049	8179
1	2048	8180
1	2025	8181
1	1982	8182
1	1922	8183
1	1854	8184
1	1773	8185
1	1703	8186
1	1642	8186
1	1593	8188
1	1554	8189
1	1524	8189
1	1492	8191
1	1477	8192
1	1471	8193
1	1474	8194
1	1491	8195
1	1523	8196
1	1566	8197
1	1619	8198
1	1665	8199
1	1713	8200
1	1752	8201
1	1782	8202
1	1791	8203
1	1787	8204
1	1765	8205
1	1737	8206
1	1708	8207
1	1678	8208
1	1646	8209
1	1613	8210
1	1595	8211
1	1578	8212
1	1562	8213
1	1553	8214
1	1553	8215
1	1566	8216
1	1587	8217
1	1616	8218
1	1648	8219
1	1680	8220
1	1696	8221
1	1701	8222
1	1692	8223
1	1669	8224
1	1634	8225
1	1609	8226
1	1575	8227
1	1555	8228
1	1526	8229
1	1513	8230
1	1508	8231
1	1510	8232
1	1521	8233
1	1540	8234
1	1559	8235
1	1581	8236
1	1607	8237
1	1638	8238
1	1665	8239
1	1684	8240
1	1686	8241
1	1673	8242
1	1658	8243
1	1628	8244
1	1596	8245
1	1576	8246
1	1561	8247
1	1549	8248
1	1541	8249
1	1538	8250
1	1539	8251
1	1553	8252
1	1566	8253
1	1582	8254
1	1605	8255
1	1636	8256
1	1670	8257
1	1710	8258
1	1747	8259
1	1778	8260
1	1796	8261
1	1802	8262
1	1790	8263
1	1763	8264
1	1729	8265
1	1697	8266
1	1675	8267
1	1660	8268
1	1652	8269
1	1648	8270
1	1642	8271
1	1634	8272
1	1626	8273
1	1618	8274
1	1616	8275
1	1631	8276
1	1650	8277
1	1676	8278
1	1696	8279
1	1702	8280
1	1703	8281
1	1687	8282
1	1660	8283
1	1625	8284
1	1588	8285
1	1559	8286
1	1537	8287
1	1523	8288
1	1517	8289
1	1517	8290
1	1528	8291
1	1547	8292
1	1573	8293
1	1605	8294
1	1638	8295
1	1678	8296
1	1723	8297
1	1764	8298
1	1795	8299
1	1827	8300
1	1850	8301
1	1854	8302
1	1843	8303
1	1825	8304
1	1795	8305
1	1773	8306
1	1754	8307
1	1737	8308
1	1714	8309
1	1698	8310
1	1678	8311
1	1664	8312
1	1656	8313
1	1646	8314
1	1649	8315
1	1660	8316
1	1675	8317
1	1688	8318
1	1700	8319
1	1710	8320
1	1715	8321
1	1712	8322
1	1698	8323
1	1682	8324
1	1659	8325
1	1634	8326
1	1621	8327
1	1615	8328
1	1616	8329
1	1620	8330
1	1634	8331
1	1647	8332
1	1660	8333
1	1670	8334
1	1679	8335
1	1689	8336
1	1705	8337
1	1729	8338
1	1751	8339
1	1773	8340
1	1788	8341
1	1793	8342
1	1798	8343
1	1794	8344
1	1786	8345
1	1770	8346
1	1755	8347
1	1741	8348
1	1739	8349
1	1733	8350
1	1730	8351
1	1738	8352
1	1752	8353
1	1767	8354
1	1790	8355
1	1812	8356
1	1836	8357
1	1860	8358
1	1882	8359
1	1893	8360
1	1896	8361
1	1882	8362
1	1856	8363
1	1820	8364
1	1778	8365
1	1747	8366
1	1723	8367
1	1706	8368
1	1697	8369
1	1694	8370
1	1697	8371
1	1710	8372
1	1724	8373
1	1738	8374
1	1758	8375
1	1785	8376
1	1818	8377
1	1857	8378
1	1890	8379
1	1913	8380
1	1931	8381
1	1940	8382
1	1936	8383
1	1922	8384
1	1897	8385
1	1871	8386
1	1843	8387
1	1813	8388
1	1777	8389
1	1749	8390
1	1719	8391
1	1693	8392
1	1673	8393
1	1659	8394
1	1652	8395
1	1664	8396
1	1693	8397
1	1731	8398
1	1774	8399
1	1818	8400
1	1845	8401
1	1869	8402
1	1877	8403
1	1870	8404
1	1855	8405
1	1843	8406
1	1817	8407
1	1783	8408
1	1759	8409
1	1734	8410
1	1711	8411
1	1690	8412
1	1670	8413
1	1652	8414
1	1636	8415
1	1628	8416
1	1634	8417
1	1647	8418
1	1661	8419
1	1686	8420
1	1712	8421
1	1737	8422
1	1742	8423
1	1741	8424
1	1712	8425
1	1687	8426
1	1656	8427
1	1630	8428
1	1611	8429
1	1606	8430
1	1609	8431
1	1625	8432
1	1644	8433
1	1660	8434
1	1678	8435
1	1697	8436
1	1723	8437
1	1751	8438
1	1785	8439
1	1808	8440
1	1814	8441
1	1795	8442
1	1764	8443
1	1716	8444
1	1665	8445
1	1611	8446
1	1558	8447
1	1505	8448
1	1467	8449
1	1437	8450
1	1432	8451
1	1439	8452
1	1452	8453
1	1476	8454
1	1503	8455
1	1546	8456
1	1593	8457
1	1639	8458
1	1686	8459
1	1723	8460
1	1742	8461
1	1751	8462
1	1746	8463
1	1720	8464
1	1693	8465
1	1660	8466
1	1631	8467
1	1599	8468
1	1573	8469
1	1553	8470
1	1536	8471
1	1530	8472
1	1530	8473
1	1532	8474
1	1542	8475
1	1555	8476
1	1581	8477
1	1611	8478
1	1634	8479
1	1660	8480
1	1662	8481
1	1659	8482
1	1646	8483
1	1625	8484
1	1595	8485
1	1569	8486
1	1542	8487
1	1518	8488
1	1500	8489
1	1482	8490
1	1469	8491
1	1459	8492
1	1453	8493
1	1454	8494
1	1466	8495
1	1480	8496
1	1503	8497
1	1538	8498
1	1575	8499
1	1607	8500
1	1631	8501
1	1639	8502
1	1637	8503
1	1622	8504
1	1595	8505
1	1568	8506
1	1546	8507
1	1532	8508
1	1529	8509
1	1529	8510
1	1534	8511
1	1534	8512
1	1539	8513
1	1544	8514
1	1551	8515
1	1561	8516
1	1581	8517
1	1607	8518
1	1633	8519
1	1648	8520
1	1659	8521
1	1660	8522
1	1649	8523
1	1625	8524
1	1590	8525
1	1559	8526
1	1523	8527
1	1500	8528
1	1478	8529
1	1465	8530
1	1460	8531
1	1456	8532
1	1456	8533
1	1461	8534
1	1471	8535
1	1489	8536
1	1523	8537
1	1557	8538
1	1594	8539
1	1625	8540
1	1646	8541
1	1658	8542
1	1661	8543
1	1660	8544
1	1647	8545
1	1634	8546
1	1624	8547
1	1616	8548
1	1607	8549
1	1597	8550
1	1581	8551
1	1576	8552
1	1573	8553
1	1574	8554
1	1576	8555
1	1596	8556
1	1623	8557
1	1652	8558
1	1682	8559
1	1701	8560
1	1712	8561
1	1711	8562
1	1699	8563
1	1674	8564
1	1638	8565
1	1594	8566
1	1557	8567
1	1527	8568
1	1503	8569
1	1498	8570
1	1492	8571
1	1494	8572
1	1502	8573
1	1512	8574
1	1529	8575
1	1556	8576
1	1599	8577
1	1647	8578
1	1693	8579
1	1634	8600
1	1645	8601
1	1634	8602
1	1612	8603
1	1584	8604
1	1555	8605
1	1529	8606
1	1505	8607
1	1492	8608
1	1486	8609
1	1486	8610
1	1487	8611
1	1501	8612
1	1522	8613
1	1545	8614
1	1574	8615
1	1607	8616
1	1649	8617
1	1697	8618
1	1738	8619
1	1731	8580
1	1755	8581
1	1764	8582
1	1759	8583
1	1736	8584
1	1710	8585
1	1677	8586
1	1647	8587
1	1611	8588
1	1581	8589
1	1552	8590
1	1535	8591
1	1527	8592
1	1524	8593
1	1524	8594
1	1528	8595
1	1531	8596
1	1553	8597
1	1580	8598
1	1610	8599
1	1619	8640
1	1645	8641
1	1661	8642
1	1668	8643
1	1661	8644
1	1641	8645
1	1629	8646
1	1608	8647
1	1592	8648
1	1579	8649
1	1566	8650
1	1562	8651
1	1567	8652
1	1576	8653
1	1584	8654
1	1595	8655
1	1608	8656
1	1637	8657
1	1669	8658
1	1699	8659
1	1765	8620
1	1787	8621
1	1791	8622
1	1775	8623
1	1752	8624
1	1716	8625
1	1680	8626
1	1638	8627
1	1593	8628
1	1553	8629
1	1517	8630
1	1487	8631
1	1467	8632
1	1452	8633
1	1458	8634
1	1456	8635
1	1476	8636
1	1503	8637
1	1543	8638
1	1581	8639
1	1726	8660
1	1734	8661
1	1725	8662
1	1700	8663
1	1663	8664
1	1619	8665
1	1575	8666
1	1540	8667
1	1508	8668
1	1490	8669
1	1484	8670
1	1479	8671
1	1489	8672
1	1502	8673
1	1520	8674
1	1544	8675
1	1581	8676
1	1620	8677
1	1665	8678
1	1712	8679
1	1753	8680
1	1783	8681
1	1800	8682
1	1795	8683
1	1783	8684
1	1760	8685
1	1738	8686
1	1713	8687
1	1689	8688
1	1667	8689
1	1654	8690
1	1642	8691
1	1637	8692
1	1639	8693
1	1645	8694
1	1649	8695
1	1662	8696
1	1686	8697
1	1710	8698
1	1728	8699
1	1742	8700
1	1737	8701
1	1726	8702
1	1710	8703
1	1686	8704
1	1659	8705
1	1639	8706
1	1623	8707
1	1610	8708
1	1603	8709
1	1600	8710
1	1602	8711
1	1609	8712
1	1621	8713
1	1629	8714
1	1638	8715
1	1647	8716
1	1660	8717
1	1686	8718
1	1712	8719
1	1746	8720
1	1765	8721
1	1767	8722
1	1764	8723
1	1724	8724
1	1695	8725
1	1652	8726
1	1611	8727
1	1572	8728
1	1539	8729
1	1515	8730
1	1503	8731
1	1503	8732
1	1512	8733
1	1521	8734
1	1529	8735
1	1542	8736
1	1557	8737
1	1583	8738
1	1618	8739
1	1644	8740
1	1664	8741
1	1674	8742
1	1671	8743
1	1660	8744
1	1634	8745
1	1608	8746
1	1589	8747
1	1567	8748
1	1553	8749
1	1542	8750
1	1541	8751
1	1534	8752
1	1531	8753
1	1536	8754
1	1545	8755
1	1567	8756
1	1599	8757
1	1638	8758
1	1676	8759
1	1709	8760
1	1721	8761
1	1728	8762
1	1718	8763
1	1697	8764
1	1665	8765
1	1628	8766
1	1589	8767
1	1558	8768
1	1534	8769
1	1521	8770
1	1512	8771
1	1508	8772
1	1512	8773
1	1515	8774
1	1521	8775
1	1529	8776
1	1547	8777
1	1576	8778
1	1607	8779
1	1636	8780
1	1660	8781
1	1669	8782
1	1670	8783
1	1660	8784
1	1634	8785
1	1608	8786
1	1582	8787
1	1555	8788
1	1541	8789
1	1531	8790
1	1526	8791
1	1523	8792
1	1517	8793
1	1512	8794
1	1515	8795
1	1530	8796
1	1564	8797
1	1608	8798
1	1658	8799
1	1702	8800
1	1739	8801
1	1764	8802
1	1776	8803
1	1764	8804
1	1741	8805
1	1706	8806
1	1670	8807
1	1634	8808
1	1607	8809
1	1583	8810
1	1580	8811
1	1581	8812
1	1593	8813
1	1617	8814
1	1649	8815
1	1698	8816
1	1755	8817
1	1832	8818
1	1906	8819
1	1868	8840
1	1869	8841
1	1855	8842
1	1830	8843
1	1780	8844
1	1726	8845
1	1675	8846
1	1626	8847
1	1581	8848
1	1546	8849
1	1526	8850
1	1507	8851
1	1503	8852
1	1500	8853
1	1506	8854
1	1520	8855
1	1547	8856
1	1576	8857
1	1607	8858
1	1644	8859
1	1978	8820
1	2040	8821
1	2094	8822
1	2135	8823
1	2157	8824
1	2165	8825
1	2162	8826
1	2133	8827
1	2106	8828
1	2069	8829
1	2027	8830
1	1994	8831
1	1963	8832
1	1935	8833
1	1904	8834
1	1869	8835
1	1843	8836
1	1837	8837
1	1843	8838
1	1856	8839
1	1683	8860
1	1712	8861
1	1729	8862
1	1736	8863
1	1729	8864
1	1714	8865
1	1695	8866
1	1681	8867
1	1662	8868
1	1651	8869
1	1643	8870
1	1629	8871
1	1616	8872
1	1608	8873
1	1607	8874
1	1607	8875
1	1616	8876
1	1629	8877
1	1644	8878
1	1660	8879
1	1675	8880
1	1684	8881
1	1686	8882
1	1683	8883
1	1665	8884
1	1651	8885
1	1631	8886
1	1607	8887
1	1582	8888
1	1557	8889
1	1541	8890
1	1528	8891
1	1516	8892
1	1512	8893
1	1517	8894
1	1525	8895
1	1538	8896
1	1572	8897
1	1613	8898
1	1661	8899
1	1712	8900
1	1747	8901
1	1764	8902
1	1764	8903
1	1751	8904
1	1721	8905
1	1692	8906
1	1662	8907
1	1634	8908
1	1608	8909
1	1585	8910
1	1566	8911
1	1560	8912
1	1575	8913
1	1594	8914
1	1624	8915
1	1660	8916
1	1697	8917
1	1736	8918
1	1774	8919
1	1775	8940
1	1786	8941
1	1787	8942
1	1773	8943
1	1751	8944
1	1713	8945
1	1686	8946
1	1656	8947
1	1633	8948
1	1620	8949
1	1616	8950
1	1616	8951
1	1619	8952
1	1625	8953
1	1632	8954
1	1636	8955
1	1648	8956
1	1674	8957
1	1708	8958
1	1742	8959
1	1791	8920
1	1800	8921
1	1784	8922
1	1746	8923
1	1695	8924
1	1644	8925
1	1595	8926
1	1557	8927
1	1530	8928
1	1512	8929
1	1503	8930
1	1512	8931
1	1534	8932
1	1558	8933
1	1597	8934
1	1625	8935
1	1656	8936
1	1689	8937
1	1726	8938
1	1752	8939
1	1812	8980
1	1837	8981
1	1845	8982
1	1845	8983
1	1825	8984
1	1791	8985
1	1753	8986
1	1719	8987
1	1687	8988
1	1664	8989
1	1654	8990
1	1647	8991
1	1639	8992
1	1638	8993
1	1644	8994
1	1655	8995
1	1674	8996
1	1700	8997
1	1737	8998
1	1773	8999
1	1777	8960
1	1802	8961
1	1821	8962
1	1830	8963
1	1824	8964
1	1800	8965
1	1768	8966
1	1733	8967
1	1698	8968
1	1664	8969
1	1636	8970
1	1613	8971
1	1608	8972
1	1608	8973
1	1617	8974
1	1634	8975
1	1656	8976
1	1688	8977
1	1733	8978
1	1778	8979
1	1809	9000
1	1832	9001
1	1849	9002
1	1856	9003
1	1850	9004
1	1827	9005
1	1813	9006
1	1785	9007
1	1760	9008
1	1740	9009
1	1726	9010
1	1719	9011
1	1718	9012
1	1724	9013
1	1736	9014
1	1744	9015
1	1757	9016
1	1790	9017
1	1830	9018
1	1869	9019
1	1909	9020
1	1933	9021
1	1944	9022
1	1935	9023
1	1910	9024
1	1873	9025
1	1841	9026
1	1799	9027
1	1765	9028
1	1740	9029
1	1728	9030
1	1727	9031
1	1737	9032
1	1750	9033
1	1769	9034
1	1791	9035
1	1825	9036
1	1856	9037
1	1891	9038
1	1926	9039
1	1948	9040
1	1960	9041
1	1953	9042
1	1927	9043
1	1890	9044
1	1836	9045
1	1773	9046
1	1720	9047
1	1677	9048
1	1646	9049
1	1630	9050
1	1633	9051
1	1642	9052
1	1655	9053
1	1673	9054
1	1691	9055
1	1720	9056
1	1761	9057
1	1814	9058
1	1864	9059
1	1906	9060
1	1922	9061
1	1924	9062
1	1909	9063
1	1878	9064
1	1844	9065
1	1800	9066
1	1764	9067
1	1729	9068
1	1699	9069
1	1670	9070
1	1648	9071
1	1639	9072
1	1639	9073
1	1647	9074
1	1665	9075
1	1692	9076
1	1729	9077
1	1768	9078
1	1801	9079
1	1836	9080
1	1845	9081
1	1847	9082
1	1834	9083
1	1803	9084
1	1764	9085
1	1724	9086
1	1688	9087
1	1660	9088
1	1634	9089
1	1616	9090
1	1600	9091
1	1598	9092
1	1607	9093
1	1625	9094
1	1647	9095
1	1676	9096
1	1708	9097
1	1740	9098
1	1769	9099
1	1791	9100
1	1812	9101
1	1812	9102
1	1794	9103
1	1769	9104
1	1733	9105
1	1686	9106
1	1643	9107
1	1600	9108
1	1565	9109
1	1535	9110
1	1520	9111
1	1505	9112
1	1502	9113
1	1500	9114
1	1505	9115
1	1527	9116
1	1553	9117
1	1584	9118
1	1615	9119
1	1644	9120
1	1657	9121
1	1661	9122
1	1658	9123
1	1647	9124
1	1625	9125
1	1608	9126
1	1581	9127
1	1562	9128
1	1538	9129
1	1527	9130
1	1517	9131
1	1518	9132
1	1525	9133
1	1533	9134
1	1546	9135
1	1563	9136
1	1593	9137
1	1626	9138
1	1660	9139
1	1686	9140
1	1698	9141
1	1695	9142
1	1686	9143
1	1657	9144
1	1619	9145
1	1579	9146
1	1539	9147
1	1503	9148
1	1479	9149
1	1463	9150
1	1451	9151
1	1451	9152
1	1461	9153
1	1476	9154
1	1503	9155
1	1533	9156
1	1571	9157
1	1618	9158
1	1660	9159
1	1697	9160
1	1721	9161
1	1737	9162
1	1733	9163
1	1712	9164
1	1679	9165
1	1629	9166
1	1584	9167
1	1545	9168
1	1517	9169
1	1503	9170
1	1499	9171
1	1504	9172
1	1523	9173
1	1543	9174
1	1565	9175
1	1595	9176
1	1632	9177
1	1665	9178
1	1697	9179
1	1713	9180
1	1724	9181
1	1711	9182
1	1682	9183
1	1644	9184
1	1604	9185
1	1564	9186
1	1530	9187
1	1508	9188
1	1501	9189
1	1503	9190
1	1508	9191
1	1527	9192
1	1548	9193
1	1580	9194
1	1611	9195
1	1643	9196
1	1677	9197
1	1711	9198
1	1738	9199
1	1751	9200
1	1751	9201
1	1728	9202
1	1694	9203
1	1651	9204
1	1605	9205
1	1565	9206
1	1539	9207
1	1520	9208
1	1514	9209
1	1517	9210
1	1525	9211
1	1539	9212
1	1556	9213
1	1576	9214
1	1594	9215
1	1609	9216
1	1631	9217
1	1652	9218
1	1673	9219
1	1698	9240
1	1712	9241
1	1722	9242
1	1721	9243
1	1706	9244
1	1674	9245
1	1647	9246
1	1608	9247
1	1571	9248
1	1534	9249
1	1512	9250
1	1500	9251
1	1497	9252
1	1495	9253
1	1503	9254
1	1517	9255
1	1534	9256
1	1563	9257
1	1599	9258
1	1634	9259
1	1687	9220
1	1697	9221
1	1695	9222
1	1675	9223
1	1656	9224
1	1626	9225
1	1602	9226
1	1581	9227
1	1559	9228
1	1548	9229
1	1539	9230
1	1537	9231
1	1542	9232
1	1550	9233
1	1569	9234
1	1575	9235
1	1592	9236
1	1616	9237
1	1647	9238
1	1674	9239
1	1669	9260
1	1697	9261
1	1713	9262
1	1724	9263
1	1724	9264
1	1714	9265
1	1699	9266
1	1677	9267
1	1647	9268
1	1624	9269
1	1607	9270
1	1591	9271
1	1580	9272
1	1566	9273
1	1554	9274
1	1553	9275
1	1563	9276
1	1587	9277
1	1633	9278
1	1678	9279
1	1711	9280
1	1739	9281
1	1758	9282
1	1765	9283
1	1760	9284
1	1739	9285
1	1711	9286
1	1682	9287
1	1651	9288
1	1629	9289
1	1623	9290
1	1613	9291
1	1611	9292
1	1610	9293
1	1610	9294
1	1610	9295
1	1622	9296
1	1643	9297
1	1678	9298
1	1713	9299
1	1746	9300
1	1766	9301
1	1778	9302
1	1783	9303
1	1776	9304
1	1751	9305
1	1723	9306
1	1691	9307
1	1665	9308
1	1646	9309
1	1634	9310
1	1629	9311
1	1622	9312
1	1620	9313
1	1610	9314
1	1603	9315
1	1597	9316
1	1607	9317
1	1628	9318
1	1648	9319
1	1678	9320
1	1704	9321
1	1718	9322
1	1724	9323
1	1712	9324
1	1686	9325
1	1660	9326
1	1631	9327
1	1596	9328
1	1566	9329
1	1543	9330
1	1530	9331
1	1529	9332
1	1538	9333
1	1555	9334
1	1580	9335
1	1619	9336
1	1663	9337
1	1715	9338
1	1770	9339
1	1818	9340
1	1848	9341
1	1861	9342
1	1859	9343
1	1840	9344
1	1792	9345
1	1738	9346
1	1688	9347
1	1645	9348
1	1611	9349
1	1587	9350
1	1579	9351
1	1573	9352
1	1573	9353
1	1586	9354
1	1607	9355
1	1635	9356
1	1671	9357
1	1713	9358
1	1762	9359
1	1809	9360
1	1838	9361
1	1856	9362
1	1860	9363
1	1845	9364
1	1818	9365
1	1778	9366
1	1736	9367
1	1688	9368
1	1647	9369
1	1607	9370
1	1576	9371
1	1550	9372
1	1528	9373
1	1512	9374
1	1503	9375
1	1502	9376
1	1517	9377
1	1544	9378
1	1581	9379
1	1620	9380
1	1656	9381
1	1682	9382
1	1700	9383
1	1697	9384
1	1679	9385
1	1656	9386
1	1634	9387
1	1607	9388
1	1586	9389
1	1567	9390
1	1549	9391
1	1546	9392
1	1555	9393
1	1561	9394
1	1574	9395
1	1587	9396
1	1607	9397
1	1631	9398
1	1654	9399
1	1679	9400
1	1700	9401
1	1713	9402
1	1720	9403
1	1711	9404
1	1687	9405
1	1651	9406
1	1620	9407
1	1590	9408
1	1566	9409
1	1552	9410
1	1550	9411
1	1552	9412
1	1555	9413
1	1562	9414
1	1571	9415
1	1591	9416
1	1620	9417
1	1656	9418
1	1688	9419
1	1724	9420
1	1746	9421
1	1760	9422
1	1764	9423
1	1754	9424
1	1727	9425
1	1697	9426
1	1647	9427
1	1611	9428
1	1581	9429
1	1557	9430
1	1545	9431
1	1544	9432
1	1555	9433
1	1568	9434
1	1581	9435
1	1586	9436
1	1602	9437
1	1620	9438
1	1642	9439
1	1657	9440
1	1669	9441
1	1673	9442
1	1670	9443
1	1660	9444
1	1639	9445
1	1611	9446
1	1589	9447
1	1567	9448
1	1550	9449
1	1538	9450
1	1530	9451
1	1541	9452
1	1557	9453
1	1584	9454
1	1619	9455
1	1659	9456
1	1712	9457
1	1783	9458
1	1867	9459
1	2012	9480
1	1993	9481
1	1965	9482
1	1930	9483
1	1892	9484
1	1842	9485
1	1782	9486
1	1727	9487
1	1675	9488
1	1634	9489
1	1607	9490
1	1585	9491
1	1579	9492
1	1580	9493
1	1587	9494
1	1594	9495
1	1598	9496
1	1616	9497
1	1642	9498
1	1671	9499
1	1948	9460
1	2026	9461
1	2086	9462
1	2137	9463
1	2169	9464
1	2181	9465
1	2176	9466
1	2174	9467
1	2163	9468
1	2148	9469
1	2131	9470
1	2106	9471
1	2087	9472
1	2067	9473
1	2052	9474
1	2039	9475
1	2030	9476
1	2026	9477
1	2026	9478
1	2025	9479
1	1697	9500
1	1715	9501
1	1715	9502
1	1705	9503
1	1677	9504
1	1635	9505
1	1589	9506
1	1546	9507
1	1513	9508
1	1489	9509
1	1478	9510
1	1476	9511
1	1485	9512
1	1507	9513
1	1540	9514
1	1581	9515
1	1620	9516
1	1665	9517
1	1713	9518
1	1761	9519
1	1796	9520
1	1821	9521
1	1832	9522
1	1821	9523
1	1796	9524
1	1754	9525
1	1704	9526
1	1655	9527
1	1612	9528
1	1582	9529
1	1557	9530
1	1543	9531
1	1536	9532
1	1534	9533
1	1545	9534
1	1559	9535
1	1581	9536
1	1607	9537
1	1645	9538
1	1681	9539
1	1710	9580
1	1742	9581
1	1763	9582
1	1764	9583
1	1754	9584
1	1737	9585
1	1712	9586
1	1688	9587
1	1661	9588
1	1641	9589
1	1625	9590
1	1615	9591
1	1611	9592
1	1618	9593
1	1633	9594
1	1651	9595
1	1680	9596
1	1725	9597
1	1776	9598
1	1831	9599
1	1708	9560
1	1718	9561
1	1723	9562
1	1715	9563
1	1699	9564
1	1673	9565
1	1634	9566
1	1595	9567
1	1566	9568
1	1550	9569
1	1539	9570
1	1537	9571
1	1546	9572
1	1564	9573
1	1584	9574
1	1609	9575
1	1634	9576
1	1670	9577
1	1712	9578
1	1757	9579
1	1807	9560
1	1836	9561
1	1844	9562
1	1840	9563
1	1814	9564
1	1772	9565
1	1729	9566
1	1686	9567
1	1644	9568
1	1602	9569
1	1564	9570
1	1528	9571
1	1510	9572
1	1503	9573
1	1508	9574
1	1523	9575
1	1538	9576
1	1569	9577
1	1618	9578
1	1668	9579
1	1867	9600
1	1877	9601
1	1880	9602
1	1870	9603
1	1850	9604
1	1812	9605
1	1769	9606
1	1721	9607
1	1674	9608
1	1634	9609
1	1599	9610
1	1574	9611
1	1557	9612
1	1555	9613
1	1561	9614
1	1576	9615
1	1592	9616
1	1626	9617
1	1672	9618
1	1726	9619
1	1779	9620
1	1830	9621
1	1862	9622
1	1872	9623
1	1865	9624
1	1841	9625
1	1809	9626
1	1773	9627
1	1737	9628
1	1701	9629
1	1678	9630
1	1670	9631
1	1674	9632
1	1685	9633
1	1701	9634
1	1717	9635
1	1740	9636
1	1765	9637
1	1793	9638
1	1839	9639
1	1865	9640
1	1883	9641
1	1888	9642
1	1881	9643
1	1866	9644
1	1843	9645
1	1808	9646
1	1781	9647
1	1760	9648
1	1742	9649
1	1737	9650
1	1727	9651
1	1724	9652
1	1726	9653
1	1735	9654
1	1740	9655
1	1748	9656
1	1764	9657
1	1788	9658
1	1817	9659
1	1840	9660
1	1846	9661
1	1854	9662
1	1847	9663
1	1836	9664
1	1812	9665
1	1773	9666
1	1744	9667
1	1724	9668
1	1710	9669
1	1708	9670
1	1718	9671
1	1736	9672
1	1754	9673
1	1778	9674
1	1803	9675
1	1830	9676
1	1869	9677
1	1913	9678
1	1960	9679
1	1998	9680
1	2013	9681
1	2009	9682
1	1985	9683
1	1944	9684
1	1893	9685
1	1833	9686
1	1775	9687
1	1727	9688
1	1686	9689
1	1661	9690
1	1639	9691
1	1634	9692
1	1634	9693
1	1647	9694
1	1668	9695
1	1697	9696
1	1733	9697
1	1782	9698
1	1842	9699
1	1885	9700
1	1925	9701
1	1948	9702
1	1953	9703
1	1932	9704
1	1891	9705
1	1835	9706
1	1781	9707
1	1741	9708
1	1712	9709
1	1699	9710
1	1695	9711
1	1699	9712
1	1712	9713
1	1726	9714
1	1737	9715
1	1749	9716
1	1764	9717
1	1785	9718
1	1809	9719
1	1823	9720
1	1829	9721
1	1827	9722
1	1809	9723
1	1769	9724
1	1727	9725
1	1657	9726
1	1613	9727
1	1573	9728
1	1535	9729
1	1507	9730
1	1490	9731
1	1494	9732
1	1511	9733
1	1541	9734
1	1581	9735
1	1629	9736
1	1683	9737
1	1731	9738
1	1775	9739
1	1808	9740
1	1827	9741
1	1828	9742
1	1817	9743
1	1795	9744
1	1760	9745
1	1715	9746
1	1682	9747
1	1643	9748
1	1613	9749
1	1587	9750
1	1561	9751
1	1548	9752
1	1544	9753
1	1544	9754
1	1554	9755
1	1566	9756
1	1592	9757
1	1623	9758
1	1654	9759
1	1678	9760
1	1693	9761
1	1700	9762
1	1697	9763
1	1684	9764
1	1660	9765
1	1630	9766
1	1606	9767
1	1580	9768
1	1557	9769
1	1546	9770
1	1531	9771
1	1525	9772
1	1518	9773
1	1525	9774
1	1530	9775
1	1535	9776
1	1546	9777
1	1569	9778
1	1598	9779
1	1665	9800
1	1678	9801
1	1674	9802
1	1660	9803
1	1632	9804
1	1590	9805
1	1551	9806
1	1521	9807
1	1499	9808
1	1479	9809
1	1471	9810
1	1461	9811
1	1469	9812
1	1478	9813
1	1494	9814
1	1512	9815
1	1529	9816
1	1554	9817
1	1582	9818
1	1616	9819
1	1625	9780
1	1652	9781
1	1665	9782
1	1672	9783
1	1661	9784
1	1648	9785
1	1627	9786
1	1609	9787
1	1597	9788
1	1584	9789
1	1577	9790
1	1571	9791
1	1572	9792
1	1579	9793
1	1582	9794
1	1592	9795
1	1594	9796
1	1608	9797
1	1632	9798
1	1651	9799
1	1649	9820
1	1677	9821
1	1697	9822
1	1699	9823
1	1688	9824
1	1661	9825
1	1630	9826
1	1594	9827
1	1555	9828
1	1524	9829
1	1494	9830
1	1482	9831
1	1487	9832
1	1500	9833
1	1519	9834
1	1530	9835
1	1548	9836
1	1577	9837
1	1608	9838
1	1645	9839
1	1675	9840
1	1697	9841
1	1712	9842
1	1712	9843
1	1697	9844
1	1671	9845
1	1634	9846
1	1602	9847
1	1573	9848
1	1552	9849
1	1543	9850
1	1546	9851
1	1555	9852
1	1565	9853
1	1576	9854
1	1584	9855
1	1593	9856
1	1618	9857
1	1648	9858
1	1691	9859
1	1738	9860
1	1773	9861
1	1800	9862
1	1814	9863
1	1803	9864
1	1783	9865
1	1750	9866
1	1710	9867
1	1662	9868
1	1620	9869
1	1584	9870
1	1553	9871
1	1529	9872
1	1513	9873
1	1503	9874
1	1503	9875
1	1514	9876
1	1534	9877
1	1564	9878
1	1594	9879
1	1616	9880
1	1634	9881
1	1647	9882
1	1651	9883
1	1646	9884
1	1627	9885
1	1603	9886
1	1582	9887
1	1563	9888
1	1544	9889
1	1531	9890
1	1524	9891
1	1520	9892
1	1521	9893
1	1529	9894
1	1541	9895
1	1561	9896
1	1598	9897
1	1644	9898
1	1693	9899
1	1733	9900
1	1747	9901
1	1751	9902
1	1737	9903
1	1713	9904
1	1685	9905
1	1642	9906
1	1599	9907
1	1564	9908
1	1535	9909
1	1514	9910
1	1503	9911
1	1512	9912
1	1529	9913
1	1552	9914
1	1580	9915
1	1605	9916
1	1642	9917
1	1683	9918
1	1718	9919
1	1746	9920
1	1752	9921
1	1744	9922
1	1724	9923
1	1692	9924
1	1654	9925
1	1619	9926
1	1595	9927
1	1581	9928
1	1573	9929
1	1568	9930
1	1562	9931
1	1561	9932
1	1565	9933
1	1580	9934
1	1590	9935
1	1603	9936
1	1620	9937
1	1639	9938
1	1674	9939
1	1700	9940
1	1716	9941
1	1723	9942
1	1720	9943
1	1708	9944
1	1683	9945
1	1643	9946
1	1611	9947
1	1584	9948
1	1563	9949
1	1544	9950
1	1526	9951
1	1512	9952
1	1507	9953
1	1512	9954
1	1526	9955
1	1553	9956
1	1591	9957
1	1638	9958
1	1687	9959
1	1733	9960
1	1759	9961
1	1777	9962
1	1778	9963
1	1768	9964
1	1749	9965
1	1725	9966
1	1703	9967
1	1679	9968
1	1658	9969
1	1634	9970
1	1624	9971
1	1622	9972
1	1629	9973
1	1636	9974
1	1649	9975
1	1657	9976
1	1678	9977
1	1703	9978
1	1733	9979
1	1764	9980
1	1785	9981
1	1790	9982
1	1791	9983
1	1773	9984
1	1739	9985
1	1699	9986
1	1660	9987
1	1616	9988
1	1579	9989
1	1544	9990
1	1517	9991
1	1503	9992
1	1503	9993
1	1512	9994
1	1529	9995
1	1546	9996
1	1573	9997
1	1610	9998
1	1657	9999
1	1698	10000
1	1729	10001
1	1742	10002
1	1740	10003
1	1724	10004
1	1698	10005
1	1660	10006
1	1634	10007
1	1615	10008
1	1607	10009
1	1607	10010
1	1607	10011
1	1607	10012
1	1606	10013
1	1606	10014
1	1607	10015
1	1613	10016
1	1628	10017
1	1641	10018
1	1660	10019
1	1671	10020
1	1669	10021
1	1661	10022
1	1647	10023
1	1625	10024
1	1594	10025
1	1564	10026
1	1530	10027
1	1508	10028
1	1495	10029
1	1491	10030
1	1495	10031
1	1512	10032
1	1534	10033
1	1559	10034
1	1585	10035
1	1607	10036
1	1634	10037
1	1662	10038
1	1697	10039
1	1713	10040
1	1725	10041
1	1727	10042
1	1724	10043
1	1705	10044
1	1679	10045
1	1645	10046
1	1617	10047
1	1595	10048
1	1577	10049
1	1560	10050
1	1546	10051
1	1543	10052
1	1543	10053
1	1551	10054
1	1565	10055
1	1585	10056
1	1617	10057
1	1654	10058
1	1687	10059
1	1712	10060
1	1727	10061
1	1728	10062
1	1712	10063
1	1686	10064
1	1646	10065
1	1593	10066
1	1555	10067
1	1524	10068
1	1507	10069
1	1503	10070
1	1503	10071
1	1511	10072
1	1527	10073
1	1539	10074
1	1554	10075
1	1571	10076
1	1598	10077
1	1632	10078
1	1663	10079
1	1690	10080
1	1696	10081
1	1697	10082
1	1692	10083
1	1687	10084
1	1674	10085
1	1651	10086
1	1631	10087
1	1613	10088
1	1598	10089
1	1590	10090
1	1586	10091
1	1593	10092
