#Date:= 2024-10-01T15:32:03.237378
#Sampling Rate(Hz):= 1000
#Labels:= LOD	ECG	TS
1	1649	20
1	1660	21
1	1661	22
1	1659	23
1	1647	24
1	1634	25
1	1623	26
1	1616	27
1	1862	28
1	1764	29
1	1634	30
1	1482	31
1	1326	32
1	1190	33
1	1081	34
1	1008	35
1	973	36
1	988	37
1	1042	38
1	1142	39
1	1279	40
1	1446	41
1	1629	42
1	1809	43
1	1961	44
1	2065	45
1	2112	46
1	2105	47
1	2050	48
1	1961	49
1	1850	50
1	1717	51
1	1583	52
1	1461	53
1	1355	54
1	1286	55
1	1253	56
1	1251	57
1	1280	58
1	1346	59
1	1443	60
1	1555	61
1	1665	62
1	1759	63
1	1818	64
1	1836	65
1	1814	66
1	1754	67
1	1664	68
1	1555	69
1	1433	70
1	1307	71
1	1202	72
1	1123	73
1	1071	74
1	1053	75
1	1067	76
1	1124	77
1	1225	78
1	1356	79
1	1515	80
1	1688	81
1	1877	82
1	2040	83
1	2192	84
1	2319	85
1	2412	86
1	2457	87
1	2459	88
1	2416	89
1	2340	90
1	2236	91
1	2109	92
1	1980	93
1	1856	94
1	1739	95
1	1646	96
1	1578	97
1	1530	98
1	1504	99
1	1494	100
1	1487	101
1	1476	102
1	1475	103
1	1450	104
1	1420	105
1	1354	106
1	1266	107
1	1152	108
1	1022	109
1	880	110
1	742	111
1	607	112
1	487	113
1	408	114
1	372	115
1	365	116
1	386	117
1	427	118
1	481	119
1	535	120
1	595	121
1	647	122
1	693	123
1	738	124
1	769	125
1	793	126
1	805	127
1	786	128
1	743	129
1	682	130
1	608	131
1	528	132
1	443	133
1	346	134
1	284	135
1	225	136
1	189	137
1	177	138
1	193	139
1	229	140
1	272	141
1	328	142
1	387	143
1	443	144
1	481	145
1	499	146
1	500	147
1	472	148
1	417	149
1	351	150
1	272	151
1	191	152
1	128	153
1	128	154
1	128	155
1	128	156
1	128	157
1	128	158
1	128	159
1	128	160
1	128	161
1	128	162
1	128	163
1	128	164
1	128	165
1	128	166
1	128	167
1	128	168
1	128	169
1	128	170
1	128	171
1	128	172
1	128	173
1	128	174
1	128	175
1	128	176
1	128	177
1	128	178
1	128	179
1	128	180
1	128	181
1	128	182
1	128	183
1	128	184
1	128	185
1	128	186
1	128	187
1	128	188
1	128	189
1	128	190
1	128	191
1	128	192
1	128	193
1	128	194
1	128	195
1	128	196
1	128	197
1	128	198
1	128	199
1	128	200
1	128	201
1	128	202
1	128	203
1	128	204
1	128	205
1	128	206
1	128	207
1	128	208
1	128	209
1	128	210
1	128	211
1	128	212
1	128	213
1	128	214
1	128	215
1	128	216
1	128	217
1	128	218
1	128	219
1	128	220
1	128	221
1	128	222
1	128	223
1	128	224
1	128	225
1	128	226
1	128	227
1	128	228
1	128	229
1	128	230
1	128	231
1	128	232
1	128	233
1	128	234
1	128	235
1	128	236
1	128	237
1	128	238
1	128	239
1	128	240
1	128	241
1	128	242
1	128	243
1	128	244
1	128	245
1	128	246
1	128	247
1	128	248
1	128	249
1	128	250
1	128	251
1	128	252
1	128	253
1	128	254
1	128	255
1	128	256
1	128	257
1	128	258
1	128	259
1	128	260
1	128	261
1	128	262
1	128	263
1	128	264
1	128	265
1	128	266
1	128	267
1	128	268
1	128	269
1	128	270
1	128	271
1	128	272
1	128	273
1	128	274
1	128	275
1	128	276
1	128	277
1	128	278
1	128	279
1	128	280
1	128	281
1	128	282
1	128	283
1	128	284
1	128	285
1	128	286
1	128	287
1	128	288
1	128	289
1	128	290
1	128	291
1	128	292
1	128	293
1	128	294
1	128	295
1	128	296
1	128	297
1	128	298
1	128	299
1	128	300
1	128	301
1	128	302
1	128	303
1	128	304
1	128	305
1	128	306
1	128	307
1	128	308
1	128	309
1	128	310
1	128	311
1	128	312
1	128	313
1	128	314
1	128	315
1	128	316
1	128	317
1	128	318
1	128	319
1	128	320
1	128	321
1	128	322
1	128	323
1	128	324
1	128	325
1	128	326
1	128	327
1	128	328
1	128	329
1	128	330
1	128	331
1	128	332
1	128	333
1	128	334
1	128	335
1	128	336
1	128	337
1	128	338
1	128	339
1	128	340
1	128	341
1	128	342
1	128	343
1	128	344
1	128	345
1	128	346
1	128	347
1	128	348
1	128	349
1	128	350
1	128	351
1	128	352
1	128	353
1	128	354
1	128	355
1	128	356
1	128	357
1	128	358
1	128	359
1	128	360
1	128	361
1	128	362
1	128	363
1	128	364
1	128	365
1	128	366
1	128	367
1	128	368
1	128	369
1	128	370
1	128	371
1	128	372
1	128	373
1	128	374
1	128	375
1	128	376
1	128	377
1	128	378
1	128	379
1	128	380
1	128	381
1	128	382
1	128	383
1	128	384
1	128	385
1	128	386
1	128	387
1	128	388
1	128	389
1	128	390
1	128	391
1	128	392
1	128	393
1	128	394
1	128	395
1	128	396
1	128	397
1	128	398
1	128	399
1	128	400
1	128	401
1	128	402
1	128	403
1	128	404
1	128	405
1	128	406
1	128	407
1	128	408
1	128	409
1	128	410
1	128	411
1	128	412
1	128	413
1	128	414
1	128	415
1	128	416
1	128	417
1	128	418
1	128	419
1	128	420
1	128	421
1	128	422
1	128	423
1	128	424
1	128	425
1	128	426
1	128	427
1	128	428
1	128	429
1	128	430
1	128	431
1	128	432
1	128	433
1	128	434
1	128	435
1	128	436
1	128	437
1	128	438
1	128	439
1	128	480
1	128	481
1	128	482
1	128	483
1	128	484
1	128	485
1	128	486
1	128	487
1	128	488
1	128	489
1	128	490
1	128	491
1	128	492
1	128	493
1	128	494
1	128	495
1	128	496
1	128	497
1	128	498
1	128	499
1	128	460
1	128	461
1	128	462
1	128	463
1	128	464
1	128	465
1	128	466
1	128	467
1	128	468
1	128	469
1	128	470
1	128	471
1	128	472
1	128	473
1	128	474
1	128	475
1	128	476
1	128	477
1	128	478
1	128	479
1	128	440
1	128	441
1	128	442
1	128	443
1	128	444
1	128	445
1	128	446
1	128	447
1	128	448
1	128	449
1	128	450
1	128	451
1	128	452
1	128	453
1	128	454
1	128	455
1	128	456
1	128	457
1	128	458
1	128	459
1	128	500
1	128	501
1	128	502
1	128	503
1	128	504
1	128	505
1	128	506
1	128	507
1	128	508
1	128	509
1	128	510
1	128	511
1	128	512
1	128	513
1	128	514
1	128	515
1	128	516
1	128	517
1	128	518
1	128	519
1	128	520
1	128	521
1	128	522
1	128	523
1	128	524
1	128	525
1	128	526
1	128	527
1	128	528
1	128	529
1	128	530
1	128	531
1	128	532
1	128	533
1	128	534
1	128	535
1	128	536
1	128	537
1	128	538
1	128	539
1	128	540
1	128	541
1	166	542
1	227	543
1	288	544
1	337	545
1	371	546
1	387	547
1	382	548
1	364	549
1	333	550
1	292	551
1	228	552
1	159	553
1	128	554
1	128	555
1	128	556
1	128	557
1	128	558
1	128	559
1	153	560
1	210	561
1	272	562
1	330	563
1	379	564
1	422	565
1	454	566
1	466	567
1	455	568
1	443	569
1	428	570
1	407	571
1	392	572
1	382	573
1	376	574
1	376	575
1	380	576
1	385	577
1	389	578
1	402	579
1	418	580
1	441	581
1	469	582
1	507	583
1	553	584
1	601	585
1	652	586
1	690	587
1	707	588
1	711	589
1	703	590
1	678	591
1	643	592
1	608	593
1	580	594
1	559	595
1	537	596
1	534	597
1	546	598
1	565	599
1	595	600
1	639	601
1	677	602
1	706	603
1	738	604
1	770	605
1	796	606
1	822	607
1	832	608
1	823	609
1	806	610
1	774	611
1	738	612
1	703	613
1	666	614
1	639	615
1	616	616
1	600	617
1	589	618
1	589	619
1	609	620
1	641	621
1	692	622
1	749	623
1	809	624
1	860	625
1	900	626
1	927	627
1	944	628
1	948	629
1	936	630
1	900	631
1	846	632
1	787	633
1	746	634
1	729	635
1	730	636
1	746	637
1	769	638
1	798	639
1	829	640
1	862	641
1	906	642
1	943	643
1	975	644
1	994	645
1	1013	646
1	1020	647
1	1024	648
1	1018	649
1	1012	650
1	1002	651
1	988	652
1	977	653
1	972	654
1	973	655
1	977	656
1	983	657
1	1005	658
1	1033	659
1	1078	660
1	1134	661
1	1188	662
1	1250	663
1	1305	664
1	1343	665
1	1362	666
1	1364	667
1	1343	668
1	1307	669
1	1266	670
1	1214	671
1	1158	672
1	1098	673
1	1047	674
1	1003	675
1	964	676
1	953	677
1	965	678
1	1005	679
1	1058	680
1	1128	681
1	1195	682
1	1252	683
1	1293	684
1	1324	685
1	1337	686
1	1332	687
1	1321	688
1	1308	689
1	1283	690
1	1242	691
1	1191	692
1	1141	693
1	1107	694
1	1085	695
1	1084	696
1	1099	697
1	1123	698
1	1161	699
1	1207	700
1	1268	701
1	1333	702
1	1401	703
1	1448	704
1	1476	705
1	1490	706
1	1489	707
1	1476	708
1	1450	709
1	1413	710
1	1373	711
1	1341	712
1	1307	713
1	1282	714
1	1271	715
1	1270	716
1	1293	717
1	1320	718
1	1354	719
1	1393	720
1	1426	721
1	1451	722
1	1479	723
1	1507	724
1	1534	725
1	1557	726
1	1578	727
1	1580	728
1	1569	729
1	1546	730
1	1512	731
1	1487	732
1	1473	733
1	1452	734
1	1449	735
1	1450	736
1	1459	737
1	1484	738
1	1521	739
1	1545	760
1	1593	761
1	1647	762
1	1705	763
1	1749	764
1	1785	765
1	1801	766
1	1803	767
1	1795	768
1	1777	769
1	1741	770
1	1697	771
1	1659	772
1	1618	773
1	1582	774
1	1548	775
1	1530	776
1	1533	777
1	1557	778
1	1592	779
1	1575	740
1	1638	741
1	1692	742
1	1738	743
1	1779	744
1	1809	745
1	1822	746
1	1830	747
1	1809	748
1	1764	749
1	1712	750
1	1657	751
1	1597	752
1	1544	753
1	1500	754
1	1468	755
1	1452	756
1	1455	757
1	1472	758
1	1503	759
1	1836	800
1	1843	801
1	1844	802
1	1838	803
1	1836	804
1	1836	805
1	1834	806
1	1825	807
1	1821	808
1	1817	809
1	1803	810
1	1778	811
1	1747	812
1	1726	813
1	1712	814
1	1705	815
1	1699	816
1	1701	817
1	1708	818
1	1730	819
1	1643	780
1	1705	781
1	1762	782
1	1812	783
1	1849	784
1	1876	785
1	1888	786
1	1890	787
1	1881	788
1	1870	789
1	1856	790
1	1836	791
1	1817	792
1	1817	793
1	1811	794
1	1801	795
1	1795	796
1	1793	797
1	1802	798
1	1820	799
1	1764	820
1	1813	821
1	1868	822
1	1919	823
1	1973	824
1	2025	825
1	2070	826
1	2106	827
1	2131	828
1	2136	829
1	2131	830
1	2109	831
1	2070	832
1	2010	833
1	1940	834
1	1865	835
1	1801	836
1	1755	837
1	1737	838
1	1735	839
1	1746	840
1	1769	841
1	1800	842
1	1839	843
1	1869	844
1	1899	845
1	1919	846
1	1924	847
1	1917	848
1	1895	849
1	1867	850
1	1835	851
1	1791	852
1	1760	853
1	1731	854
1	1716	855
1	1709	856
1	1703	857
1	1712	858
1	1737	859
1	1775	860
1	1832	861
1	1894	862
1	1949	863
1	2003	864
1	2055	865
1	2102	866
1	2135	867
1	2153	868
1	2148	869
1	2123	870
1	2086	871
1	2047	872
1	2010	873
1	1976	874
1	1952	875
1	1947	876
1	1955	877
1	1979	878
1	2034	879
1	2112	880
1	2209	881
1	2320	882
1	2427	883
1	2517	884
1	2596	885
1	2672	886
1	2735	887
1	2790	888
1	2825	889
1	2852	890
1	2853	891
1	2839	892
1	2812	893
1	2775	894
1	2757	895
1	2760	896
1	2782	897
1	2803	898
1	2827	899
1	2853	900
1	2881	901
1	2916	902
1	2944	903
1	2968	904
1	2981	905
1	2973	906
1	2940	907
1	2861	908
1	2739	909
1	2593	910
1	2437	911
1	2264	912
1	2094	913
1	1952	914
1	1833	915
1	1736	916
1	1660	917
1	1606	918
1	1566	919
1	1542	920
1	1534	921
1	1543	922
1	1556	923
1	1587	924
1	1625	925
1	1664	926
1	1708	927
1	1742	928
1	1776	929
1	1793	930
1	1823	931
1	1832	932
1	1845	933
1	1860	934
1	1881	935
1	1906	936
1	1935	937
1	1967	938
1	2000	939
1	2031	940
1	2065	941
1	2102	942
1	2127	943
1	2146	944
1	2165	945
1	2174	946
1	2178	947
1	2174	948
1	2163	949
1	2148	950
1	2133	951
1	2124	952
1	2112	953
1	2105	954
1	2097	955
1	2090	956
1	2085	957
1	2088	958
1	2094	959
1	2105	960
1	2121	961
1	2133	962
1	2156	963
1	2176	964
1	2192	965
1	2203	966
1	2209	967
1	2197	968
1	2183	969
1	2165	970
1	2136	971
1	2105	972
1	2079	973
1	2055	974
1	2040	975
1	2038	976
1	2043	977
1	2053	978
1	2071	979
1	2102	980
1	2140	981
1	2196	982
1	2250	983
1	2296	984
1	2326	985
1	2341	986
1	2343	987
1	2325	988
1	2296	989
1	2263	990
1	2232	991
1	2197	992
1	2169	993
1	2144	994
1	2127	995
1	2114	996
1	2104	997
1	2098	998
1	2117	999
1	2145	1000
1	2174	1001
1	2214	1002
1	2261	1003
1	2296	1004
1	2329	1005
1	2338	1006
1	2313	1007
1	2265	1008
1	2218	1009
1	2173	1010
1	2125	1011
1	2079	1012
1	2027	1013
1	2000	1014
1	1993	1015
1	2000	1016
1	2026	1017
1	2058	1018
1	2102	1019
1	2146	1020
1	2197	1021
1	2257	1022
1	2307	1023
1	2351	1024
1	2388	1025
1	2419	1026
1	2435	1027
1	2431	1028
1	2412	1029
1	2372	1030
1	2319	1031
1	2270	1032
1	2229	1033
1	2166	1034
1	2138	1035
1	2124	1036
1	2108	1037
1	2117	1038
1	2131	1039
1	2156	1040
1	2188	1041
1	2237	1042
1	2287	1043
1	2335	1044
1	2377	1045
1	2406	1046
1	2420	1047
1	2424	1048
1	2421	1049
1	2407	1050
1	2391	1051
1	2353	1052
1	2314	1053
1	2280	1054
1	2243	1055
1	2212	1056
1	2199	1057
1	2181	1058
1	2168	1059
1	2169	1060
1	2186	1061
1	2219	1062
1	2273	1063
1	2325	1064
1	2384	1065
1	2445	1066
1	2499	1067
1	2527	1068
1	2533	1069
1	2515	1070
1	2487	1071
1	2440	1072
1	2378	1073
1	2324	1074
1	2275	1075
1	2243	1076
1	2236	1077
1	2242	1078
1	2270	1079
1	2303	1080
1	2341	1081
1	2386	1082
1	2432	1083
1	2477	1084
1	2513	1085
1	2540	1086
1	2559	1087
1	2559	1088
1	2552	1089
1	2532	1090
1	2507	1091
1	2476	1092
1	2434	1093
1	2395	1094
1	2372	1095
1	2366	1096
1	2376	1097
1	2395	1098
1	2426	1099
1	2462	1100
1	2503	1101
1	2535	1102
1	2567	1103
1	2596	1104
1	2623	1105
1	2635	1106
1	2635	1107
1	2611	1108
1	2582	1109
1	2555	1110
1	2524	1111
1	2499	1112
1	2471	1113
1	2445	1114
1	2425	1115
1	2419	1116
1	2420	1117
1	2436	1118
1	2471	1119
1	2372	1140
1	2417	1141
1	2458	1142
1	2501	1143
1	2536	1144
1	2580	1145
1	2620	1146
1	2645	1147
1	2645	1148
1	2625	1149
1	2590	1150
1	2549	1151
1	2506	1152
1	2464	1153
1	2419	1154
1	2389	1155
1	2366	1156
1	2350	1157
1	2348	1158
1	2360	1159
1	2511	1120
1	2548	1121
1	2591	1122
1	2632	1123
1	2673	1124
1	2715	1125
1	2740	1126
1	2747	1127
1	2735	1128
1	2699	1129
1	2673	1130
1	2632	1131
1	2581	1132
1	2525	1133
1	2476	1134
1	2423	1135
1	2381	1136
1	2353	1137
1	2338	1138
1	2345	1139
1	2369	1160
1	2390	1161
1	2409	1162
1	2422	1163
1	2442	1164
1	2448	1165
1	2438	1166
1	2421	1167
1	2392	1168
1	2356	1169
1	2323	1170
1	2284	1171
1	2238	1172
1	2188	1173
1	2147	1174
1	2106	1175
1	2080	1176
1	2066	1177
1	2057	1178
1	2066	1179
1	2084	1180
1	2117	1181
1	2166	1182
1	2211	1183
1	2263	1184
1	2304	1185
1	2332	1186
1	2343	1187
1	2343	1188
1	2328	1189
1	2288	1190
1	2236	1191
1	2169	1192
1	2092	1193
1	2028	1194
1	1976	1195
1	1939	1196
1	1922	1197
1	1922	1198
1	1926	1199
1	1952	1200
1	1989	1201
1	2035	1202
1	2085	1203
1	2130	1204
1	2165	1205
1	2188	1206
1	2201	1207
1	2192	1208
1	2181	1209
1	2155	1210
1	2120	1211
1	2088	1212
1	2048	1213
1	2007	1214
1	1966	1215
1	1935	1216
1	1912	1217
1	1898	1218
1	1898	1219
1	1910	1220
1	1929	1221
1	1958	1222
1	1989	1223
1	2026	1224
1	2073	1225
1	2113	1226
1	2153	1227
1	2179	1228
1	2187	1229
1	2172	1230
1	2155	1231
1	2107	1232
1	2060	1233
1	2013	1234
1	1974	1235
1	1945	1236
1	1922	1237
1	1918	1238
1	1926	1239
1	1949	1240
1	1985	1241
1	2025	1242
1	2068	1243
1	2106	1244
1	2139	1245
1	2179	1246
1	2201	1247
1	2201	1248
1	2175	1249
1	2137	1250
1	2088	1251
1	2036	1252
1	1984	1253
1	1944	1254
1	1915	1255
1	1900	1256
1	1898	1257
1	1920	1258
1	1940	1259
1	1965	1260
1	1993	1261
1	2022	1262
1	2052	1263
1	2086	1264
1	2119	1265
1	2147	1266
1	2163	1267
1	2157	1268
1	2143	1269
1	2125	1270
1	2093	1271
1	2057	1272
1	2008	1273
1	1959	1274
1	1924	1275
1	1913	1276
1	1913	1277
1	1927	1278
1	1948	1279
1	1971	1280
1	1989	1281
1	2008	1282
1	2019	1283
1	2034	1284
1	2045	1285
1	2052	1286
1	2052	1287
1	2036	1288
1	2004	1289
1	1962	1290
1	1917	1291
1	1869	1292
1	1832	1293
1	1801	1294
1	1788	1295
1	1790	1296
1	1803	1297
1	1827	1298
1	1853	1299
1	1890	1300
1	1932	1301
1	1976	1302
1	2021	1303
1	2076	1304
1	2133	1305
1	2183	1306
1	2219	1307
1	2244	1308
1	2255	1309
1	2250	1310
1	2233	1311
1	2200	1312
1	2157	1313
1	2117	1314
1	2079	1315
1	2045	1316
1	2025	1317
1	2016	1318
1	2026	1319
1	2043	1320
1	2066	1321
1	2093	1322
1	2118	1323
1	2146	1324
1	2170	1325
1	2183	1326
1	2182	1327
1	2161	1328
1	2135	1329
1	2105	1330
1	2065	1331
1	2023	1332
1	1993	1333
1	1964	1334
1	1939	1335
1	1937	1336
1	1944	1337
1	1965	1338
1	1994	1339
1	2019	1340
1	2036	1341
1	2057	1342
1	2080	1343
1	2101	1344
1	2115	1345
1	2127	1346
1	2129	1347
1	2117	1348
1	2093	1349
1	2061	1350
1	2028	1351
1	1985	1352
1	1938	1353
1	1903	1354
1	1875	1355
1	1858	1356
1	1851	1357
1	1849	1358
1	1865	1359
1	1895	1360
1	1939	1361
1	1996	1362
1	2075	1363
1	2145	1364
1	2199	1365
1	2238	1366
1	2262	1367
1	2267	1368
1	2261	1369
1	2235	1370
1	2186	1371
1	2131	1372
1	2070	1373
1	2017	1374
1	1971	1375
1	1934	1376
1	1914	1377
1	1904	1378
1	1906	1379
1	1916	1380
1	1936	1381
1	1966	1382
1	2003	1383
1	2043	1384
1	2079	1385
1	2102	1386
1	2109	1387
1	2103	1388
1	2091	1389
1	2077	1390
1	2048	1391
1	2008	1392
1	1968	1393
1	1926	1394
1	1898	1395
1	1886	1396
1	1881	1397
1	1883	1398
1	1896	1399
1	1918	1400
1	1945	1401
1	1978	1402
1	2003	1403
1	2030	1404
1	2052	1405
1	2068	1406
1	2084	1407
1	2084	1408
1	2077	1409
1	2067	1410
1	2062	1411
1	2052	1412
1	2043	1413
1	2026	1414
1	2007	1415
1	1991	1416
1	1976	1417
1	1967	1418
1	1974	1419
1	2004	1420
1	2048	1421
1	2105	1422
1	2156	1423
1	2206	1424
1	2245	1425
1	2264	1426
1	2263	1427
1	2238	1428
1	2183	1429
1	2112	1430
1	2037	1431
1	1960	1432
1	1889	1433
1	1830	1434
1	1776	1435
1	1735	1436
1	1708	1437
1	1706	1438
1	1721	1439
1	1755	1440
1	1809	1441
1	1864	1442
1	1920	1443
1	1974	1444
1	2025	1445
1	2058	1446
1	2071	1447
1	2058	1448
1	2041	1449
1	2021	1450
1	2003	1451
1	1977	1452
1	1959	1453
1	1935	1454
1	1909	1455
1	1891	1456
1	1887	1457
1	1895	1458
1	1911	1459
1	1828	1500
1	1862	1501
1	1911	1502
1	1965	1503
1	2014	1504
1	2061	1505
1	2092	1506
1	2108	1507
1	2100	1508
1	2081	1509
1	2065	1510
1	2045	1511
1	2029	1512
1	2009	1513
1	1988	1514
1	1972	1515
1	1968	1516
1	1975	1517
1	1996	1518
1	2019	1519
1	1960	1480
1	1981	1481
1	2013	1482
1	2040	1483
1	2066	1484
1	2088	1485
1	2096	1486
1	2097	1487
1	2089	1488
1	2070	1489
1	2040	1490
1	2001	1491
1	1961	1492
1	1914	1493
1	1873	1494
1	1840	1495
1	1817	1496
1	1808	1497
1	1794	1498
1	1800	1499
1	1934	1460
1	1959	1461
1	1982	1462
1	2002	1463
1	2032	1464
1	2063	1465
1	2090	1466
1	2115	1467
1	2126	1468
1	2127	1469
1	2120	1470
1	2107	1471
1	2084	1472
1	2055	1473
1	2026	1474
1	2001	1475
1	1981	1476
1	1965	1477
1	1948	1478
1	1948	1479
1	2052	1520
1	2081	1521
1	2106	1522
1	2119	1523
1	2127	1524
1	2128	1525
1	2116	1526
1	2096	1527
1	2058	1528
1	2015	1529
1	1967	1530
1	1934	1531
1	1887	1532
1	1850	1533
1	1811	1534
1	1773	1535
1	1755	1536
1	1751	1537
1	1759	1538
1	1777	1539
1	1802	1540
1	1841	1541
1	1870	1542
1	1908	1543
1	1940	1544
1	1973	1545
1	2007	1546
1	2028	1547
1	2039	1548
1	2034	1549
1	2023	1550
1	2000	1551
1	1974	1552
1	1940	1553
1	1914	1554
1	1888	1555
1	1869	1556
1	1863	1557
1	1873	1558
1	1895	1559
1	1926	1560
1	1965	1561
1	2011	1562
1	2048	1563
1	2078	1564
1	2104	1565
1	2124	1566
1	2131	1567
1	2114	1568
1	2093	1569
1	2073	1570
1	2052	1571
1	2022	1572
1	1978	1573
1	1934	1574
1	1888	1575
1	1849	1576
1	1823	1577
1	1814	1578
1	1817	1579
1	1839	1580
1	1873	1581
1	1922	1582
1	1962	1583
1	2007	1584
1	2042	1585
1	2057	1586
1	2064	1587
1	2044	1588
1	2013	1589
1	1974	1590
1	1935	1591
1	1895	1592
1	1860	1593
1	1832	1594
1	1813	1595
1	1800	1596
1	1810	1597
1	1823	1598
1	1850	1599
1	1887	1600
1	1931	1601
1	1985	1602
1	2030	1603
1	2070	1604
1	2105	1605
1	2118	1606
1	2116	1607
1	2105	1608
1	2079	1609
1	2040	1610
1	1985	1611
1	1922	1612
1	1862	1613
1	1814	1614
1	1778	1615
1	1754	1616
1	1742	1617
1	1743	1618
1	1760	1619
1	1857	1640
1	1882	1641
1	1919	1642
1	1952	1643
1	1990	1644
1	2023	1645
1	2055	1646
1	2079	1647
1	2101	1648
1	2109	1649
1	2106	1650
1	2078	1651
1	2028	1652
1	1964	1653
1	1898	1654
1	1849	1655
1	1814	1656
1	1782	1657
1	1764	1658
1	1773	1659
1	1791	1620
1	1835	1621
1	1884	1622
1	1931	1623
1	1973	1624
1	2009	1625
1	2028	1626
1	2034	1627
1	2016	1628
1	1992	1629
1	1959	1630
1	1922	1631
1	1882	1632
1	1852	1633
1	1824	1634
1	1797	1635
1	1796	1636
1	1795	1637
1	1813	1638
1	1833	1639
1	1791	1660
1	1822	1661
1	1855	1662
1	1895	1663
1	1922	1664
1	1947	1665
1	1959	1666
1	1970	1667
1	1974	1668
1	1975	1669
1	1974	1670
1	1962	1671
1	1947	1672
1	1917	1673
1	1886	1674
1	1854	1675
1	1828	1676
1	1816	1677
1	1802	1678
1	1816	1679
1	1842	1680
1	1870	1681
1	1901	1682
1	1932	1683
1	1962	1684
1	1989	1685
1	2011	1686
1	2022	1687
1	2013	1688
1	2005	1689
1	1999	1690
1	1998	1691
1	1993	1692
1	1974	1693
1	1945	1694
1	1909	1695
1	1879	1696
1	1856	1697
1	1843	1698
1	1837	1699
1	1834	1700
1	1836	1701
1	1841	1702
1	1842	1703
1	1856	1704
1	1874	1705
1	1883	1706
1	1887	1707
1	1886	1708
1	1885	1709
1	1880	1710
1	1871	1711
1	1857	1712
1	1837	1713
1	1809	1714
1	1783	1715
1	1764	1716
1	1751	1717
1	1747	1718
1	1764	1719
1	1791	1740
1	1841	1741
1	1898	1742
1	1952	1743
1	2003	1744
1	2052	1745
1	2083	1746
1	2103	1747
1	2099	1748
1	2077	1749
1	2032	1750
1	1976	1751
1	1913	1752
1	1855	1753
1	1790	1754
1	1736	1755
1	1690	1756
1	1661	1757
1	1654	1758
1	1672	1759
1	1711	1760
1	1769	1761
1	1840	1762
1	1902	1763
1	1960	1764
1	2015	1765
1	2060	1766
1	2084	1767
1	2079	1768
1	2066	1769
1	2039	1770
1	2011	1771
1	1978	1772
1	1958	1773
1	1931	1774
1	1908	1775
1	1888	1776
1	1868	1777
1	1841	1778
1	1815	1779
1	1787	1780
1	1777	1781
1	1780	1782
1	1783	1783
1	1795	1784
1	1812	1785
1	1826	1786
1	1836	1787
1	1841	1788
1	1845	1789
1	1845	1790
1	1845	1791
1	1843	1792
1	1836	1793
1	1832	1794
1	1827	1795
1	1821	1796
1	1818	1797
1	1817	1798
1	1834	1799
1	1856	1780
1	1884	1781
1	1921	1782
1	1949	1783
1	1974	1784
1	2001	1785
1	2025	1786
1	2039	1787
1	2046	1788
1	2039	1789
1	2018	1790
1	1989	1791
1	1949	1792
1	1891	1793
1	1827	1794
1	1762	1795
1	1704	1796
1	1665	1797
1	1644	1798
1	1639	1799
1	1652	1800
1	1683	1801
1	1731	1802
1	1782	1803
1	1836	1804
1	1883	1805
1	1926	1806
1	1960	1807
1	1976	1808
1	1992	1809
1	2008	1810
1	2026	1811
1	2052	1812
1	2076	1813
1	2105	1814
1	2137	1815
1	2175	1816
1	2222	1817
1	2290	1818
1	2368	1819
1	2451	1820
1	2525	1821
1	2601	1822
1	2666	1823
1	2725	1824
1	2768	1825
1	2789	1826
1	2798	1827
1	2782	1828
1	2757	1829
1	2725	1830
1	2690	1831
1	2641	1832
1	2587	1833
1	2535	1834
1	2488	1835
1	2432	1836
1	2377	1837
1	2327	1838
1	2272	1839
1	2197	1840
1	2118	1841
1	2026	1842
1	1934	1843
1	1855	1844
1	1778	1845
1	1712	1846
1	1641	1847
1	1566	1848
1	1497	1849
1	1433	1850
1	1372	1851
1	1327	1852
1	1293	1853
1	1282	1854
1	1284	1855
1	1302	1856
1	1328	1857
1	1372	1858
1	1425	1859
1	1485	1860
1	1542	1861
1	1605	1862
1	1663	1863
1	1724	1864
1	1781	1865
1	1827	1866
1	1847	1867
1	1842	1868
1	1825	1869
1	1793	1870
1	1764	1871
1	1738	1872
1	1712	1873
1	1695	1874
1	1685	1875
1	1682	1876
1	1687	1877
1	1707	1878
1	1736	1879
1	1774	1880
1	1823	1881
1	1869	1882
1	1908	1883
1	1950	1884
1	1992	1885
1	2026	1886
1	2052	1887
1	2054	1888
1	2043	1889
1	2024	1890
1	2000	1891
1	1973	1892
1	1944	1893
1	1917	1894
1	1893	1895
1	1869	1896
1	1853	1897
1	1837	1898
1	1835	1899
1	1843	1900
1	1864	1901
1	1885	1902
1	1891	1903
1	1883	1904
1	1872	1905
1	1868	1906
1	1860	1907
1	1856	1908
1	1843	1909
1	1820	1910
1	1783	1911
1	1749	1912
1	1712	1913
1	1686	1914
1	1666	1915
1	1660	1916
1	1665	1917
1	1686	1918
1	1713	1919
1	1752	1920
1	1800	1921
1	1850	1922
1	1895	1923
1	1939	1924
1	1974	1925
1	1995	1926
1	2006	1927
1	2005	1928
1	1999	1929
1	1981	1930
1	1961	1931
1	1930	1932
1	1905	1933
1	1871	1934
1	1838	1935
1	1817	1936
1	1791	1937
1	1786	1938
1	1791	1939
1	1803	1940
1	1823	1941
1	1851	1942
1	1880	1943
1	1913	1944
1	1939	1945
1	1957	1946
1	1958	1947
1	1959	1948
1	1955	1949
1	1948	1950
1	1947	1951
1	1931	1952
1	1913	1953
1	1895	1954
1	1877	1955
1	1867	1956
1	1856	1957
1	1856	1958
1	1868	1959
1	1881	1960
1	1903	1961
1	1935	1962
1	1974	1963
1	2002	1964
1	2025	1965
1	2036	1966
1	2039	1967
1	2019	1968
1	1983	1969
1	1943	1970
1	1897	1971
1	1860	1972
1	1818	1973
1	1779	1974
1	1752	1975
1	1743	1976
1	1753	1977
1	1769	1978
1	1802	1979
1	1845	1980
1	1889	1981
1	1931	1982
1	1967	1983
1	1991	1984
1	2006	1985
1	2006	1986
1	2000	1987
1	1974	1988
1	1953	1989
1	1926	1990
1	1899	1991
1	1869	1992
1	1838	1993
1	1803	1994
1	1783	1995
1	1780	1996
1	1788	1997
1	1809	1998
1	1835	1999
1	1867	2000
1	1904	2001
1	1949	2002
1	1996	2003
1	2039	2004
1	2079	2005
1	2117	2006
1	2146	2007
1	2157	2008
1	2150	2009
1	2130	2010
1	2106	2011
1	2078	2012
1	2047	2013
1	2013	2014
1	1986	2015
1	1965	2016
1	1950	2017
1	1940	2018
1	1948	2019
1	1968	2020
1	2000	2021
1	2046	2022
1	2084	2023
1	2118	2024
1	2140	2025
1	2157	2026
1	2174	2027
1	2183	2028
1	2179	2029
1	2156	2030
1	2131	2031
1	2103	2032
1	2069	2033
1	2043	2034
1	2021	2035
1	2010	2036
1	2002	2037
1	2004	2038
1	2016	2039
1	1993	2060
1	2015	2061
1	2045	2062
1	2071	2063
1	2105	2064
1	2136	2065
1	2168	2066
1	2192	2067
1	2210	2068
1	2218	2069
1	2218	2070
1	2210	2071
1	2194	2072
1	2168	2073
1	2133	2074
1	2105	2075
1	2094	2076
1	2097	2077
1	2094	2078
1	2102	2079
1	2039	2040
1	2073	2041
1	2102	2042
1	2132	2043
1	2161	2044
1	2183	2045
1	2194	2046
1	2198	2047
1	2186	2048
1	2170	2049
1	2137	2050
1	2099	2051
1	2040	2052
1	2000	2053
1	1970	2054
1	1948	2055
1	1936	2056
1	1939	2057
1	1957	2058
1	1974	2059
1	2107	2080
1	2117	2081
1	2132	2082
1	2147	2083
1	2161	2084
1	2170	2085
1	2165	2086
1	2152	2087
1	2125	2088
1	2091	2089
1	2051	2090
1	1998	2091
1	1936	2092
1	1870	2093
1	1819	2094
1	1775	2095
1	1742	2096
1	1727	2097
1	1721	2098
1	1733	2099
1	1752	2100
1	1786	2101
1	1826	2102
1	1863	2103
1	1897	2104
1	1935	2105
1	1965	2106
1	1983	2107
1	1976	2108
1	1964	2109
1	1939	2110
1	1899	2111
1	1848	2112
1	1785	2113
1	1727	2114
1	1683	2115
1	1647	2116
1	1624	2117
1	1610	2118
1	1606	2119
1	1607	2120
1	1620	2121
1	1646	2122
1	1672	2123
1	1706	2124
1	1743	2125
1	1777	2126
1	1802	2127
1	1815	2128
1	1796	2129
1	1764	2130
1	1726	2131
1	1664	2132
1	1611	2133
1	1558	2134
1	1514	2135
1	1479	2136
1	1459	2137
1	1450	2138
1	1458	2139
1	1481	2160
1	1520	2161
1	1557	2162
1	1607	2163
1	1659	2164
1	1703	2165
1	1751	2166
1	1777	2167
1	1783	2168
1	1769	2169
1	1738	2170
1	1692	2171
1	1639	2172
1	1582	2173
1	1540	2174
1	1508	2175
1	1493	2176
1	1484	2177
1	1500	2178
1	1526	2179
1	1557	2160
1	1588	2161
1	1625	2162
1	1670	2163
1	1715	2164
1	1759	2165
1	1787	2166
1	1802	2167
1	1802	2168
1	1792	2169
1	1766	2170
1	1737	2171
1	1698	2172
1	1663	2173
1	1633	2174
1	1602	2175
1	1580	2176
1	1566	2177
1	1559	2178
1	1566	2179
1	1575	2180
1	1582	2181
1	1603	2182
1	1619	2183
1	1647	2184
1	1674	2185
1	1701	2186
1	1717	2187
1	1735	2188
1	1737	2189
1	1727	2190
1	1705	2191
1	1671	2192
1	1625	2193
1	1581	2194
1	1540	2195
1	1505	2196
1	1477	2197
1	1450	2198
1	1439	2199
1	1449	2200
1	1474	2201
1	1503	2202
1	1536	2203
1	1568	2204
1	1595	2205
1	1617	2206
1	1634	2207
1	1638	2208
1	1634	2209
1	1625	2210
1	1610	2211
1	1600	2212
1	1587	2213
1	1582	2214
1	1581	2215
1	1584	2216
1	1586	2217
1	1589	2218
1	1600	2219
1	1622	2220
1	1649	2221
1	1680	2222
1	1720	2223
1	1757	2224
1	1791	2225
1	1818	2226
1	1836	2227
1	1830	2228
1	1817	2229
1	1785	2230
1	1747	2231
1	1709	2232
1	1674	2233
1	1622	2234
1	1593	2235
1	1563	2236
1	1557	2237
1	1567	2238
1	1594	2239
1	1639	2240
1	1692	2241
1	1746	2242
1	1790	2243
1	1830	2244
1	1856	2245
1	1873	2246
1	1878	2247
1	1868	2248
1	1843	2249
1	1795	2250
1	1751	2251
1	1693	2252
1	1633	2253
1	1568	2254
1	1515	2255
1	1476	2256
1	1453	2257
1	1450	2258
1	1463	2259
1	1483	2260
1	1523	2261
1	1560	2262
1	1609	2263
1	1654	2264
1	1693	2265
1	1719	2266
1	1737	2267
1	1738	2268
1	1738	2269
1	1729	2270
1	1716	2271
1	1699	2272
1	1670	2273
1	1638	2274
1	1607	2275
1	1587	2276
1	1574	2277
1	1568	2278
1	1571	2279
1	1582	2280
1	1603	2281
1	1631	2282
1	1659	2283
1	1687	2284
1	1713	2285
1	1734	2286
1	1741	2287
1	1746	2288
1	1750	2289
1	1747	2290
1	1746	2291
1	1737	2292
1	1712	2293
1	1689	2294
1	1665	2295
1	1642	2296
1	1616	2297
1	1598	2298
1	1600	2299
1	1616	2300
1	1644	2301
1	1679	2302
1	1704	2303
1	1737	2304
1	1764	2305
1	1791	2306
1	1815	2307
1	1827	2308
1	1829	2309
1	1818	2310
1	1789	2311
1	1749	2312
1	1701	2313
1	1654	2314
1	1607	2315
1	1573	2316
1	1552	2317
1	1539	2318
1	1552	2319
1	1577	2320
1	1608	2321
1	1647	2322
1	1687	2323
1	1731	2324
1	1769	2325
1	1798	2326
1	1817	2327
1	1817	2328
1	1799	2329
1	1768	2330
1	1738	2331
1	1694	2332
1	1652	2333
1	1609	2334
1	1571	2335
1	1543	2336
1	1525	2337
1	1517	2338
1	1519	2339
1	1535	2340
1	1573	2341
1	1613	2342
1	1660	2343
1	1706	2344
1	1744	2345
1	1770	2346
1	1782	2347
1	1770	2348
1	1759	2349
1	1740	2350
1	1717	2351
1	1674	2352
1	1634	2353
1	1595	2354
1	1561	2355
1	1541	2356
1	1530	2357
1	1538	2358
1	1555	2359
1	1587	2360
1	1636	2361
1	1698	2362
1	1750	2363
1	1800	2364
1	1843	2365
1	1868	2366
1	1880	2367
1	1881	2368
1	1877	2369
1	1869	2370
1	1847	2371
1	1817	2372
1	1783	2373
1	1746	2374
1	1706	2375
1	1669	2376
1	1638	2377
1	1608	2378
1	1602	2379
1	1607	2380
1	1625	2381
1	1651	2382
1	1686	2383
1	1729	2384
1	1772	2385
1	1817	2386
1	1847	2387
1	1858	2388
1	1843	2389
1	1808	2390
1	1757	2391
1	1699	2392
1	1633	2393
1	1571	2394
1	1529	2395
1	1503	2396
1	1495	2397
1	1500	2398
1	1517	2399
1	1543	2400
1	1577	2401
1	1615	2402
1	1657	2403
1	1694	2404
1	1728	2405
1	1755	2406
1	1773	2407
1	1764	2408
1	1761	2409
1	1757	2410
1	1755	2411
1	1749	2412
1	1733	2413
1	1710	2414
1	1684	2415
1	1654	2416
1	1628	2417
1	1607	2418
1	1596	2419
1	1602	2420
1	1617	2421
1	1644	2422
1	1665	2423
1	1697	2424
1	1729	2425
1	1757	2426
1	1773	2427
1	1775	2428
1	1769	2429
1	1747	2430
1	1726	2431
1	1688	2432
1	1652	2433
1	1620	2434
1	1591	2435
1	1571	2436
1	1559	2437
1	1570	2438
1	1599	2439
1	1644	2440
1	1698	2441
1	1749	2442
1	1803	2443
1	1856	2444
1	1890	2445
1	1921	2446
1	1931	2447
1	1930	2448
1	1918	2449
1	1896	2450
1	1881	2451
1	1865	2452
1	1836	2453
1	1791	2454
1	1740	2455
1	1692	2456
1	1643	2457
1	1616	2458
1	1598	2459
1	1593	2480
1	1602	2481
1	1621	2482
1	1647	2483
1	1682	2484
1	1712	2485
1	1737	2486
1	1756	2487
1	1763	2488
1	1760	2489
1	1747	2490
1	1737	2491
1	1723	2492
1	1701	2493
1	1681	2494
1	1659	2495
1	1638	2496
1	1629	2497
1	1632	2498
1	1646	2499
1	1665	2480
1	1687	2481
1	1715	2482
1	1738	2483
1	1770	2484
1	1801	2485
1	1824	2486
1	1832	2487
1	1819	2488
1	1795	2489
1	1764	2490
1	1734	2491
1	1695	2492
1	1654	2493
1	1618	2494
1	1587	2495
1	1572	2496
1	1572	2497
1	1581	2498
1	1599	2499
1	1621	2500
1	1654	2501
1	1698	2502
1	1738	2503
1	1776	2504
1	1817	2505
1	1845	2506
1	1869	2507
1	1880	2508
1	1872	2509
1	1854	2510
1	1826	2511
1	1788	2512
1	1741	2513
1	1698	2514
1	1660	2515
1	1639	2516
1	1634	2517
1	1641	2518
1	1661	2519
1	1715	2540
1	1713	2541
1	1715	2542
1	1720	2543
1	1730	2544
1	1738	2545
1	1749	2546
1	1751	2547
1	1749	2548
1	1746	2549
1	1734	2550
1	1721	2551
1	1706	2552
1	1692	2553
1	1675	2554
1	1657	2555
1	1637	2556
1	1634	2557
1	1631	2558
1	1643	2559
1	1697	2520
1	1738	2521
1	1789	2522
1	1839	2523
1	1869	2524
1	1895	2525
1	1917	2526
1	1929	2527
1	1932	2528
1	1924	2529
1	1908	2530
1	1883	2531
1	1851	2532
1	1826	2533
1	1793	2534
1	1773	2535
1	1749	2536
1	1739	2537
1	1729	2538
1	1721	2539
1	1665	2560
1	1698	2561
1	1733	2562
1	1770	2563
1	1811	2564
1	1845	2565
1	1868	2566
1	1880	2567
1	1875	2568
1	1852	2569
1	1817	2570
1	1774	2571
1	1733	2572
1	1686	2573
1	1643	2574
1	1603	2575
1	1572	2576
1	1562	2577
1	1566	2578
1	1592	2579
1	1633	2580
1	1686	2581
1	1747	2582
1	1815	2583
1	1880	2584
1	1945	2585
1	2000	2586
1	2042	2587
1	2054	2588
1	2052	2589
1	2026	2590
1	1983	2591
1	1927	2592
1	1859	2593
1	1786	2594
1	1718	2595
1	1665	2596
1	1629	2597
1	1605	2598
1	1598	2599
1	1615	2600
1	1650	2601
1	1694	2602
1	1741	2603
1	1795	2604
1	1845	2605
1	1880	2606
1	1907	2607
1	1908	2608
1	1895	2609
1	1867	2610
1	1834	2611
1	1800	2612
1	1769	2613
1	1737	2614
1	1705	2615
1	1687	2616
1	1682	2617
1	1682	2618
1	1701	2619
1	1733	2620
1	1769	2621
1	1828	2622
1	1880	2623
1	1926	2624
1	1965	2625
1	1995	2626
1	2010	2627
1	2012	2628
1	1999	2629
1	1961	2630
1	1922	2631
1	1871	2632
1	1819	2633
1	1764	2634
1	1712	2635
1	1665	2636
1	1621	2637
1	1581	2638
1	1567	2639
1	1569	2640
1	1591	2641
1	1634	2642
1	1681	2643
1	1733	2644
1	1784	2645
1	1834	2646
1	1874	2647
1	1895	2648
1	1904	2649
1	1897	2650
1	1875	2651
1	1841	2652
1	1798	2653
1	1750	2654
1	1699	2655
1	1656	2656
1	1631	2657
1	1628	2658
1	1643	2659
1	1671	2660
1	1712	2661
1	1764	2662
1	1823	2663
1	1883	2664
1	1933	2665
1	1963	2666
1	1985	2667
1	1987	2668
1	1973	2669
1	1945	2670
1	1908	2671
1	1870	2672
1	1832	2673
1	1791	2674
1	1765	2675
1	1753	2676
1	1750	2677
1	1748	2678
1	1757	2679
1	1778	2680
1	1802	2681
1	1844	2682
1	1886	2683
1	1925	2684
1	1961	2685
1	1988	2686
1	2004	2687
1	2005	2688
1	1993	2689
1	1960	2690
1	1908	2691
1	1843	2692
1	1764	2693
1	1697	2694
1	1647	2695
1	1616	2696
1	1608	2697
1	1619	2698
1	1638	2699
1	1670	2700
1	1708	2701
1	1747	2702
1	1782	2703
1	1818	2704
1	1850	2705
1	1870	2706
1	1882	2707
1	1869	2708
1	1844	2709
1	1817	2710
1	1782	2711
1	1756	2712
1	1728	2713
1	1701	2714
1	1685	2715
1	1677	2716
1	1682	2717
1	1700	2718
1	1737	2719
1	1733	2740
1	1756	2741
1	1790	2742
1	1826	2743
1	1888	2744
1	1934	2745
1	1970	2746
1	1986	2747
1	1976	2748
1	1958	2749
1	1938	2750
1	1911	2751
1	1870	2752
1	1818	2753
1	1764	2754
1	1717	2755
1	1684	2756
1	1662	2757
1	1665	2758
1	1674	2759
1	1785	2720
1	1839	2721
1	1875	2722
1	1898	2723
1	1917	2724
1	1923	2725
1	1927	2726
1	1934	2727
1	1926	2728
1	1920	2729
1	1906	2730
1	1872	2731
1	1853	2732
1	1816	2733
1	1768	2734
1	1733	2735
1	1703	2736
1	1692	2737
1	1697	2738
1	1711	2739
1	1690	2760
1	1714	2761
1	1747	2762
1	1783	2763
1	1830	2764
1	1867	2765
1	1893	2766
1	1907	2767
1	1897	2768
1	1878	2769
1	1847	2770
1	1799	2771
1	1752	2772
1	1698	2773
1	1641	2774
1	1587	2775
1	1550	2776
1	1534	2777
1	1543	2778
1	1572	2779
1	1609	2780
1	1661	2781
1	1730	2782
1	1809	2783
1	1892	2784
1	1974	2785
1	2056	2786
1	2138	2787
1	2207	2788
1	2262	2789
1	2300	2790
1	2323	2791
1	2327	2792
1	2320	2793
1	2324	2794
1	2341	2795
1	2380	2796
1	2435	2797
1	2493	2798
1	2547	2799
1	2609	2800
1	2673	2801
1	2745	2802
1	2811	2803
1	2861	2804
1	2884	2805
1	2885	2806
1	2862	2807
1	2816	2808
1	2753	2809
1	2685	2810
1	2611	2811
1	2529	2812
1	2437	2813
1	2341	2814
1	2251	2815
1	2158	2816
1	2081	2817
1	2001	2818
1	1925	2819
1	1476	2840
1	1513	2841
1	1555	2842
1	1598	2843
1	1643	2844
1	1684	2845
1	1715	2846
1	1743	2847
1	1764	2848
1	1794	2849
1	1814	2850
1	1826	2851
1	1837	2852
1	1830	2853
1	1814	2854
1	1792	2855
1	1769	2856
1	1748	2857
1	1721	2858
1	1712	2859
1	1856	2840
1	1790	2841
1	1733	2842
1	1692	2843
1	1675	2844
1	1673	2845
1	1680	2846
1	1692	2847
1	1701	2848
1	1695	2849
1	1674	2850
1	1638	2851
1	1591	2852
1	1537	2853
1	1485	2854
1	1450	2855
1	1435	2856
1	1428	2857
1	1437	2858
1	1450	2859
1	1712	2860
1	1711	2861
1	1713	2862
1	1728	2863
1	1743	2864
1	1760	2865
1	1775	2866
1	1790	2867
1	1795	2868
1	1795	2869
1	1791	2870
1	1783	2871
1	1769	2872
1	1743	2873
1	1722	2874
1	1707	2875
1	1698	2876
1	1709	2877
1	1728	2878
1	1764	2879
1	1816	2880
1	1863	2881
1	1914	2882
1	1961	2883
1	2004	2884
1	2043	2885
1	2070	2886
1	2091	2887
1	2097	2888
1	2100	2889
1	2094	2890
1	2078	2891
1	2052	2892
1	2004	2893
1	1943	2894
1	1868	2895
1	1795	2896
1	1747	2897
1	1715	2898
1	1698	2899
1	1697	2900
1	1712	2901
1	1741	2902
1	1769	2903
1	1806	2904
1	1836	2905
1	1860	2906
1	1884	2907
1	1897	2908
1	1897	2909
1	1881	2910
1	1854	2911
1	1814	2912
1	1764	2913
1	1712	2914
1	1665	2915
1	1634	2916
1	1616	2917
1	1613	2918
1	1638	2919
1	1682	2920
1	1731	2921
1	1791	2922
1	1860	2923
1	1927	2924
1	1991	2925
1	2041	2926
1	2074	2927
1	2093	2928
1	2093	2929
1	2066	2930
1	2026	2931
1	1970	2932
1	1898	2933
1	1825	2934
1	1757	2935
1	1708	2936
1	1680	2937
1	1665	2938
1	1669	2939
1	1690	2940
1	1729	2941
1	1788	2942
1	1855	2943
1	1922	2944
1	1989	2945
1	2043	2946
1	2091	2947
1	2119	2948
1	2132	2949
1	2130	2950
1	2106	2951
1	2076	2952
1	2052	2953
1	2024	2954
1	1999	2955
1	1974	2956
1	1951	2957
1	1936	2958
1	1928	2959
1	1932	2960
1	1946	2961
1	1965	2962
1	1985	2963
1	2004	2964
1	2024	2965
1	2042	2966
1	2057	2967
1	2048	2968
1	2024	2969
1	1981	2970
1	1937	2971
1	1890	2972
1	1843	2973
1	1809	2974
1	1782	2975
1	1769	2976
1	1766	2977
1	1773	2978
1	1803	2979
1	1849	2980
1	1891	2981
1	1926	2982
1	1945	2983
1	1948	2984
1	1947	2985
1	1940	2986
1	1926	2987
1	1912	2988
1	1896	2989
1	1886	2990
1	1888	2991
1	1899	2992
1	1913	2993
1	1937	2994
1	1965	2995
1	1996	2996
1	2026	2997
1	2042	2998
1	2048	2999
1	2052	3000
1	2053	3001
1	2063	3002
1	2077	3003
1	2091	3004
1	2106	3005
1	2126	3006
1	2135	3007
1	2122	3008
1	2103	3009
1	2066	3010
1	2027	3011
1	2005	3012
1	1988	3013
1	1981	3014
1	1989	3015
1	2011	3016
1	2035	3017
1	2061	3018
1	2084	3019
1	2105	3020
1	2131	3021
1	2148	3022
1	2157	3023
1	2170	3024
1	2170	3025
1	2169	3026
1	2172	3027
1	2169	3028
1	2160	3029
1	2147	3030
1	2133	3031
1	2112	3032
1	2101	3033
1	2094	3034
1	2092	3035
1	2095	3036
1	2098	3037
1	2099	3038
1	2099	3039
1	2105	3040
1	2107	3041
1	2123	3042
1	2130	3043
1	2133	3044
1	2136	3045
1	2135	3046
1	2127	3047
1	2106	3048
1	2084	3049
1	2062	3050
1	2039	3051
1	2013	3052
1	1984	3053
1	1970	3054
1	1973	3055
1	1993	3056
1	2013	3057
1	2047	3058
1	2084	3059
1	2126	3060
1	2172	3061
1	2222	3062
1	2267	3063
1	2299	3064
1	2318	3065
1	2317	3066
1	2299	3067
1	2249	3068
1	2181	3069
1	2102	3070
1	2025	3071
1	1949	3072
1	1884	3073
1	1814	3074
1	1742	3075
1	1686	3076
1	1642	3077
1	1620	3078
1	1616	3079
1	1672	3100
1	1673	3101
1	1682	3102
1	1683	3103
1	1691	3104
1	1703	3105
1	1712	3106
1	1729	3107
1	1738	3108
1	1733	3109
1	1714	3110
1	1700	3111
1	1687	3112
1	1670	3113
1	1662	3114
1	1661	3115
1	1670	3116
1	1686	3117
1	1695	3118
1	1699	3119
1	1631	3080
1	1659	3081
1	1708	3082
1	1767	3083
1	1843	3084
1	1901	3085
1	1953	3086
1	2001	3087
1	2026	3088
1	2030	3089
1	2023	3090
1	2001	3091
1	1971	3092
1	1918	3093
1	1854	3094
1	1790	3095
1	1742	3096
1	1708	3097
1	1683	3098
1	1671	3099
1	1531	3140
1	1549	3141
1	1567	3142
1	1591	3143
1	1618	3144
1	1644	3145
1	1660	3146
1	1662	3147
1	1652	3148
1	1623	3149
1	1587	3150
1	1562	3151
1	1539	3152
1	1526	3153
1	1517	3154
1	1524	3155
1	1535	3156
1	1559	3157
1	1587	3158
1	1621	3159
1	1702	3120
1	1706	3121
1	1708	3122
1	1713	3123
1	1726	3124
1	1738	3125
1	1747	3126
1	1751	3127
1	1750	3128
1	1748	3129
1	1747	3130
1	1742	3131
1	1728	3132
1	1712	3133
1	1670	3134
1	1634	3135
1	1592	3136
1	1553	3137
1	1527	3138
1	1523	3139
1	1649	3160
1	1669	3161
1	1688	3162
1	1714	3163
1	1733	3164
1	1738	3165
1	1728	3166
1	1704	3167
1	1677	3168
1	1646	3169
1	1612	3170
1	1580	3171
1	1544	3172
1	1505	3173
1	1480	3174
1	1459	3175
1	1448	3176
1	1449	3177
1	1453	3178
1	1472	3179
1	1503	3180
1	1542	3181
1	1584	3182
1	1632	3183
1	1674	3184
1	1710	3185
1	1737	3186
1	1755	3187
1	1764	3188
1	1763	3189
1	1744	3190
1	1721	3191
1	1695	3192
1	1647	3193
1	1595	3194
1	1553	3195
1	1523	3196
1	1508	3197
1	1513	3198
1	1534	3199
1	1564	3200
1	1594	3201
1	1625	3202
1	1642	3203
1	1663	3204
1	1675	3205
1	1679	3206
1	1674	3207
1	1652	3208
1	1629	3209
1	1606	3210
1	1577	3211
1	1543	3212
1	1508	3213
1	1479	3214
1	1451	3215
1	1431	3216
1	1422	3217
1	1415	3218
1	1427	3219
1	1451	3220
1	1489	3221
1	1537	3222
1	1580	3223
1	1608	3224
1	1634	3225
1	1655	3226
1	1665	3227
1	1673	3228
1	1673	3229
1	1651	3230
1	1629	3231
1	1602	3232
1	1572	3233
1	1548	3234
1	1529	3235
1	1520	3236
1	1517	3237
1	1519	3238
1	1529	3239
1	1541	3240
1	1567	3241
1	1600	3242
1	1641	3243
1	1686	3244
1	1729	3245
1	1754	3246
1	1762	3247
1	1751	3248
1	1738	3249
1	1721	3250
1	1709	3251
1	1690	3252
1	1670	3253
1	1646	3254
1	1621	3255
1	1594	3256
1	1572	3257
1	1561	3258
1	1566	3259
1	1575	3260
1	1582	3261
1	1600	3262
1	1612	3263
1	1634	3264
1	1660	3265
1	1682	3266
1	1704	3267
1	1706	3268
1	1690	3269
1	1661	3270
1	1632	3271
1	1586	3272
1	1541	3273
1	1494	3274
1	1449	3275
1	1409	3276
1	1376	3277
1	1357	3278
1	1364	3279
1	1398	3280
1	1445	3281
1	1508	3282
1	1571	3283
1	1631	3284
1	1686	3285
1	1736	3286
1	1764	3287
1	1782	3288
1	1780	3289
1	1757	3290
1	1726	3291
1	1692	3292
1	1647	3293
1	1595	3294
1	1543	3295
1	1498	3296
1	1480	3297
1	1488	3298
1	1516	3299
1	1548	3300
1	1583	3301
1	1620	3302
1	1656	3303
1	1690	3304
1	1721	3305
1	1738	3306
1	1742	3307
1	1738	3308
1	1726	3309
1	1705	3310
1	1677	3311
1	1651	3312
1	1618	3313
1	1584	3314
1	1552	3315
1	1519	3316
1	1492	3317
1	1474	3318
1	1463	3319
1	1456	3320
1	1452	3321
1	1448	3322
1	1435	3323
1	1440	3324
1	1455	3325
1	1482	3326
1	1518	3327
1	1556	3328
1	1590	3329
1	1616	3330
1	1634	3331
1	1641	3332
1	1646	3333
1	1645	3334
1	1643	3335
1	1644	3336
1	1646	3337
1	1655	3338
1	1660	3339
1	1660	3340
1	1663	3341
1	1670	3342
1	1678	3343
1	1688	3344
1	1700	3345
1	1715	3346
1	1718	3347
1	1712	3348
1	1694	3349
1	1665	3350
1	1635	3351
1	1603	3352
1	1555	3353
1	1507	3354
1	1461	3355
1	1412	3356
1	1369	3357
1	1350	3358
1	1353	3359
1	1373	3360
1	1411	3361
1	1451	3362
1	1503	3363
1	1554	3364
1	1599	3365
1	1646	3366
1	1684	3367
1	1710	3368
1	1733	3369
1	1737	3370
1	1728	3371
1	1712	3372
1	1678	3373
1	1636	3374
1	1597	3375
1	1562	3376
1	1535	3377
1	1507	3378
1	1498	3379
1	1503	3380
1	1518	3381
1	1547	3382
1	1570	3383
1	1603	3384
1	1633	3385
1	1651	3386
1	1670	3387
1	1683	3388
1	1693	3389
1	1701	3390
1	1700	3391
1	1687	3392
1	1665	3393
1	1629	3394
1	1581	3395
1	1547	3396
1	1530	3397
1	1521	3398
1	1525	3399
1	1536	3400
1	1555	3401
1	1594	3402
1	1629	3403
1	1660	3404
1	1682	3405
1	1692	3406
1	1703	3407
1	1712	3408
1	1711	3409
1	1695	3410
1	1669	3411
1	1633	3412
1	1581	3413
1	1539	3414
1	1503	3415
1	1478	3416
1	1457	3417
1	1442	3418
1	1425	3419
1	1423	3420
1	1435	3421
1	1458	3422
1	1501	3423
1	1556	3424
1	1622	3425
1	1686	3426
1	1740	3427
1	1773	3428
1	1787	3429
1	1770	3430
1	1747	3431
1	1701	3432
1	1669	3433
1	1620	3434
1	1585	3435
1	1552	3436
1	1521	3437
1	1501	3438
1	1487	3439
1	1477	3440
1	1477	3441
1	1494	3442
1	1513	3443
1	1541	3444
1	1566	3445
1	1594	3446
1	1620	3447
1	1647	3448
1	1665	3449
1	1686	3450
1	1690	3451
1	1685	3452
1	1670	3453
1	1652	3454
1	1634	3455
1	1621	3456
1	1605	3457
1	1574	3458
1	1557	3459
1	1551	3460
1	1557	3461
1	1580	3462
1	1608	3463
1	1639	3464
1	1674	3465
1	1708	3466
1	1733	3467
1	1742	3468
1	1739	3469
1	1724	3470
1	1695	3471
1	1659	3472
1	1616	3473
1	1582	3474
1	1562	3475
1	1553	3476
1	1556	3477
1	1572	3478
1	1599	3479
1	1634	3480
1	1661	3481
1	1688	3482
1	1713	3483
1	1737	3484
1	1751	3485
1	1750	3486
1	1728	3487
1	1703	3488
1	1669	3489
1	1631	3490
1	1590	3491
1	1554	3492
1	1518	3493
1	1502	3494
1	1488	3495
1	1480	3496
1	1474	3497
1	1467	3498
1	1476	3499
1	1503	3500
1	1542	3501
1	1581	3502
1	1613	3503
1	1651	3504
1	1693	3505
1	1737	3506
1	1777	3507
1	1817	3508
1	1832	3509
1	1827	3510
1	1801	3511
1	1764	3512
1	1712	3513
1	1660	3514
1	1608	3515
1	1572	3516
1	1542	3517
1	1512	3518
1	1503	3519
1	1503	3520
1	1518	3521
1	1541	3522
1	1557	3523
1	1580	3524
1	1599	3525
1	1625	3526
1	1646	3527
1	1660	3528
1	1661	3529
1	1652	3530
1	1642	3531
1	1626	3532
1	1616	3533
1	1616	3534
1	1625	3535
1	1646	3536
1	1673	3537
1	1701	3538
1	1716	3539
1	1724	3540
1	1737	3541
1	1739	3542
1	1734	3543
1	1724	3544
1	1714	3545
1	1710	3546
1	1708	3547
1	1706	3548
1	1712	3549
1	1713	3550
1	1708	3551
1	1683	3552
1	1647	3553
1	1602	3554
1	1561	3555
1	1530	3556
1	1506	3557
1	1491	3558
1	1491	3559
1	1559	3580
1	1566	3581
1	1584	3582
1	1602	3583
1	1623	3584
1	1648	3585
1	1674	3586
1	1697	3587
1	1713	3588
1	1729	3589
1	1738	3590
1	1739	3591
1	1730	3592
1	1712	3593
1	1701	3594
1	1686	3595
1	1664	3596
1	1647	3597
1	1626	3598
1	1607	3599
1	1594	3600
1	1581	3601
1	1564	3602
1	1549	3603
1	1540	3604
1	1539	3605
1	1544	3606
1	1554	3607
1	1566	3608
1	1589	3609
1	1612	3610
1	1644	3611
1	1667	3612
1	1686	3613
1	1686	3614
1	1687	3615
1	1686	3616
1	1686	3617
1	1680	3618
1	1674	3619
1	1503	3560
1	1533	3561
1	1569	3562
1	1608	3563
1	1656	3564
1	1708	3565
1	1755	3566
1	1808	3567
1	1837	3568
1	1850	3569
1	1851	3570
1	1835	3571
1	1803	3572
1	1764	3573
1	1723	3574
1	1677	3575
1	1635	3576
1	1605	3577
1	1577	3578
1	1562	3579
1	1677	3620
1	1679	3621
1	1678	3622
1	1677	3623
1	1686	3624
1	1694	3625
1	1701	3626
1	1716	3627
1	1718	3628
1	1719	3629
1	1711	3630
1	1697	3631
1	1675	3632
1	1661	3633
1	1652	3634
1	1643	3635
1	1638	3636
1	1639	3637
1	1652	3638
1	1669	3639
1	1688	3640
1	1710	3641
1	1731	3642
1	1762	3643
1	1778	3644
1	1794	3645
1	1817	3646
1	1832	3647
1	1843	3648
1	1843	3649
1	1834	3650
1	1818	3651
1	1793	3652
1	1760	3653
1	1733	3654
1	1703	3655
1	1673	3656
1	1649	3657
1	1641	3658
1	1642	3659
1	1651	3660
1	1665	3661
1	1679	3662
1	1688	3663
1	1701	3664
1	1713	3665
1	1727	3666
1	1733	3667
1	1725	3668
1	1715	3669
1	1701	3670
1	1685	3671
1	1667	3672
1	1639	3673
1	1621	3674
1	1607	3675
1	1595	3676
1	1587	3677
1	1590	3678
1	1601	3679
1	1623	3680
1	1655	3681
1	1692	3682
1	1729	3683
1	1765	3684
1	1800	3685
1	1819	3686
1	1831	3687
1	1821	3688
1	1793	3689
1	1768	3690
1	1742	3691
1	1724	3692
1	1706	3693
1	1687	3694
1	1662	3695
1	1641	3696
1	1628	3697
1	1610	3698
1	1603	3699
1	1593	3700
1	1592	3701
1	1603	3702
1	1611	3703
1	1634	3704
1	1662	3705
1	1698	3706
1	1729	3707
1	1764	3708
1	1787	3709
1	1796	3710
1	1795	3711
1	1787	3712
1	1765	3713
1	1755	3714
1	1742	3715
1	1723	3716
1	1699	3717
1	1686	3718
1	1674	3719
1	1673	3720
1	1671	3721
1	1677	3722
1	1686	3723
1	1697	3724
1	1700	3725
1	1708	3726
1	1712	3727
1	1701	3728
1	1688	3729
1	1678	3730
1	1670	3731
1	1662	3732
1	1661	3733
1	1655	3734
1	1643	3735
1	1634	3736
1	1626	3737
1	1622	3738
1	1626	3739
1	1638	3740
1	1661	3741
1	1695	3742
1	1729	3743
1	1764	3744
1	1796	3745
1	1819	3746
1	1826	3747
1	1830	3748
1	1819	3749
1	1818	3750
1	1807	3751
1	1787	3752
1	1760	3753
1	1725	3754
1	1688	3755
1	1652	3756
1	1625	3757
1	1602	3758
1	1599	3759
1	1610	3760
1	1631	3761
1	1654	3762
1	1685	3763
1	1714	3764
1	1743	3765
1	1764	3766
1	1782	3767
1	1796	3768
1	1817	3769
1	1830	3770
1	1832	3771
1	1820	3772
1	1791	3773
1	1767	3774
1	1733	3775
1	1686	3776
1	1647	3777
1	1609	3778
1	1581	3779
1	1563	3780
1	1560	3781
1	1561	3782
1	1573	3783
1	1593	3784
1	1612	3785
1	1634	3786
1	1647	3787
1	1664	3788
1	1681	3789
1	1687	3790
1	1682	3791
1	1676	3792
1	1664	3793
1	1661	3794
1	1662	3795
1	1670	3796
1	1680	3797
1	1690	3798
1	1705	3799
1	1728	3800
1	1747	3801
1	1764	3802
1	1778	3803
1	1793	3804
1	1809	3805
1	1811	3806
1	1791	3807
1	1769	3808
1	1730	3809
1	1683	3810
1	1634	3811
1	1591	3812
1	1557	3813
1	1539	3814
1	1538	3815
1	1551	3816
1	1571	3817
1	1590	3818
1	1621	3819
1	1659	3820
1	1692	3821
1	1728	3822
1	1749	3823
1	1764	3824
1	1772	3825
1	1776	3826
1	1769	3827
1	1754	3828
1	1736	3829
1	1700	3830
1	1668	3831
1	1633	3832
1	1602	3833
1	1574	3834
1	1554	3835
1	1539	3836
1	1532	3837
1	1543	3838
1	1557	3839
1	1581	3840
1	1618	3841
1	1652	3842
1	1689	3843
1	1726	3844
1	1764	3845
1	1796	3846
1	1823	3847
1	1830	3848
1	1832	3849
1	1833	3850
1	1832	3851
1	1822	3852
1	1796	3853
1	1757	3854
1	1715	3855
1	1669	3856
1	1618	3857
1	1570	3858
1	1533	3859
1	1508	3860
1	1495	3861
1	1490	3862
1	1489	3863
1	1503	3864
1	1526	3865
1	1561	3866
1	1608	3867
1	1657	3868
1	1697	3869
1	1724	3870
1	1746	3871
1	1760	3872
1	1761	3873
1	1751	3874
1	1734	3875
1	1710	3876
1	1687	3877
1	1662	3878
1	1657	3879
1	1663	3880
1	1674	3881
1	1696	3882
1	1718	3883
1	1750	3884
1	1792	3885
1	1852	3886
1	1917	3887
1	1991	3888
1	2061	3889
1	2129	3890
1	2189	3891
1	2243	3892
1	2278	3893
1	2317	3894
1	2363	3895
1	2404	3896
1	2453	3897
1	2489	3898
1	2514	3899
1	2532	3900
1	2542	3901
1	2548	3902
1	2542	3903
1	2529	3904
1	2515	3905
1	2502	3906
1	2486	3907
1	2449	3908
1	2418	3909
1	2376	3910
1	2338	3911
1	2292	3912
1	2243	3913
1	2168	3914
1	2086	3915
1	2000	3916
1	1913	3917
1	1826	3918
1	1737	3919
1	1669	3920
1	1607	3921
1	1554	3922
1	1503	3923
1	1476	3924
1	1454	3925
1	1436	3926
1	1418	3927
1	1394	3928
1	1359	3929
1	1323	3930
1	1288	3931
1	1260	3932
1	1227	3933
1	1216	3934
1	1217	3935
1	1237	3936
1	1269	3937
1	1312	3938
1	1359	3939
1	1413	3940
1	1462	3941
1	1507	3942
1	1560	3943
1	1602	3944
1	1634	3945
1	1670	3946
1	1693	3947
1	1710	3948
1	1710	3949
1	1695	3950
1	1679	3951
1	1661	3952
1	1634	3953
1	1610	3954
1	1587	3955
1	1561	3956
1	1549	3957
1	1555	3958
1	1566	3959
1	1584	3960
1	1608	3961
1	1641	3962
1	1672	3963
1	1701	3964
1	1726	3965
1	1744	3966
1	1755	3967
1	1764	3968
1	1772	3969
1	1764	3970
1	1738	3971
1	1714	3972
1	1683	3973
1	1654	3974
1	1629	3975
1	1612	3976
1	1607	3977
1	1612	3978
1	1628	3979
1	1647	3980
1	1673	3981
1	1692	3982
1	1698	3983
1	1700	3984
1	1692	3985
1	1674	3986
1	1657	3987
1	1634	3988
1	1608	3989
1	1589	3990
1	1572	3991
1	1555	3992
1	1546	3993
1	1546	3994
1	1556	3995
1	1578	3996
1	1607	3997
1	1635	3998
1	1675	3999
1	1715	4000
1	1760	4001
1	1813	4002
1	1852	4003
1	1883	4004
1	1900	4005
1	1904	4006
1	1887	4006
1	1856	4008
1	1817	4009
1	1764	4010
1	1712	4011
1	1661	4012
1	1608	4013
1	1570	4014
1	1539	4014
1	1518	4016
1	1507	4017
1	1519	4018
1	1542	4019
1	1701	4040
1	1716	4041
1	1733	4042
1	1733	4043
1	1736	4044
1	1733	4045
1	1733	4046
1	1726	4046
1	1724	4048
1	1718	4049
1	1721	4050
1	1720	4051
1	1724	4052
1	1729	4053
1	1737	4054
1	1739	4054
1	1746	4056
1	1751	4057
1	1748	4058
1	1751	4059
1	1579	4020
1	1623	4021
1	1665	4022
1	1714	4022
1	1764	4024
1	1814	4025
1	1847	4026
1	1870	4027
1	1881	4028
1	1885	4029
1	1878	4030
1	1868	4030
1	1846	4032
1	1826	4033
1	1791	4034
1	1756	4035
1	1722	4036
1	1699	4037
1	1688	4038
1	1692	4038
1	1734	4080
1	1775	4081
1	1822	4082
1	1868	4083
1	1910	4084
1	1950	4085
1	1979	4086
1	1996	4086
1	1992	4088
1	1980	4089
1	1957	4090
1	1922	4091
1	1895	4092
1	1856	4093
1	1820	4094
1	1790	4094
1	1766	4096
1	1756	4097
1	1755	4098
1	1764	4099
1	1762	4060
1	1777	4061
1	1795	4062
1	1824	4062
1	1843	4064
1	1856	4065
1	1862	4066
1	1856	4067
1	1843	4068
1	1830	4069
1	1812	4070
1	1781	4070
1	1746	4072
1	1710	4073
1	1685	4074
1	1669	4075
1	1660	4076
1	1660	4077
1	1674	4078
1	1700	4078
1	1788	4100
1	1827	4101
1	1865	4102
1	1898	4103
1	1939	4104
1	1977	4105
1	2013	4106
1	2044	4107
1	2061	4108
1	2070	4109
1	2066	4110
1	2052	4111
1	2025	4112
1	1993	4113
1	1971	4114
1	1953	4115
1	1946	4116
1	1947	4117
1	1937	4118
1	1937	4119
1	1947	4120
1	1962	4121
1	1999	4122
1	2040	4123
1	2090	4124
1	2131	4125
1	2165	4126
1	2179	4127
1	2179	4128
1	2167	4129
1	2144	4130
1	2118	4131
1	2084	4132
1	2044	4133
1	2004	4134
1	1965	4135
1	1933	4136
1	1906	4137
1	1887	4138
1	1883	4139
1	1891	4140
1	1908	4141
1	1922	4142
1	1947	4143
1	1975	4144
1	2015	4145
1	2055	4146
1	2093	4147
1	2117	4148
1	2134	4149
1	2142	4150
1	2135	4151
1	2119	4152
1	2099	4153
1	2058	4154
1	2012	4155
1	1969	4156
1	1940	4157
1	1918	4158
1	1908	4159
1	1652	4180
1	1659	4181
1	1674	4182
1	1690	4183
1	1712	4184
1	1746	4185
1	1779	4186
1	1799	4187
1	1817	4188
1	1815	4189
1	1803	4190
1	1788	4191
1	1755	4192
1	1710	4193
1	1657	4194
1	1603	4195
1	1553	4196
1	1516	4197
1	1490	4198
1	1482	4199
1	1904	4160
1	1901	4161
1	1909	4162
1	1917	4163
1	1931	4164
1	1946	4165
1	1964	4166
1	1989	4167
1	2002	4168
1	2000	4169
1	1983	4170
1	1950	4171
1	1908	4172
1	1856	4173
1	1801	4174
1	1757	4175
1	1718	4176
1	1691	4177
1	1663	4178
1	1654	4179
1	1491	4200
1	1513	4201
1	1539	4202
1	1573	4203
1	1607	4204
1	1634	4205
1	1665	4206
1	1686	4207
1	1685	4208
1	1667	4209
1	1647	4210
1	1623	4211
1	1593	4212
1	1568	4213
1	1538	4214
1	1517	4215
1	1503	4216
1	1501	4217
1	1503	4218
1	1512	4219
1	1520	4220
1	1529	4221
1	1546	4222
1	1567	4223
1	1595	4224
1	1621	4225
1	1642	4226
1	1658	4227
1	1660	4228
1	1659	4229
1	1645	4230
1	1616	4231
1	1575	4232
1	1510	4233
1	1480	4234
1	1445	4235
1	1422	4236
1	1404	4237
1	1398	4238
1	1398	4239
1	1597	4260
1	1607	4261
1	1623	4262
1	1638	4263
1	1655	4264
1	1661	4265
1	1661	4266
1	1657	4267
1	1638	4268
1	1619	4269
1	1590	4270
1	1550	4271
1	1506	4272
1	1458	4273
1	1417	4274
1	1382	4275
1	1364	4276
1	1359	4277
1	1372	4278
1	1404	4279
1	1407	4240
1	1422	4241
1	1440	4242
1	1465	4243
1	1490	4244
1	1520	4245
1	1554	4246
1	1579	4247
1	1602	4248
1	1625	4249
1	1638	4250
1	1643	4251
1	1641	4252
1	1630	4253
1	1622	4254
1	1613	4255
1	1607	4256
1	1600	4257
1	1600	4258
1	1595	4259
1	1445	4280
1	1488	4281
1	1542	4282
1	1594	4283
1	1656	4284
1	1710	4285
1	1751	4286
1	1782	4287
1	1790	4288
1	1777	4289
1	1746	4290
1	1707	4291
1	1657	4292
1	1605	4293
1	1555	4294
1	1507	4295
1	1474	4296
1	1450	4297
1	1425	4298
1	1418	4299
1	1415	4300
1	1424	4301
1	1445	4302
1	1472	4303
1	1503	4304
1	1544	4305
1	1584	4306
1	1615	4307
1	1633	4308
1	1635	4309
1	1631	4310
1	1607	4311
1	1581	4312
1	1542	4313
1	1507	4314
1	1473	4315
1	1438	4316
1	1412	4317
1	1404	4318
1	1409	4319
1	1432	4320
1	1463	4321
1	1497	4322
1	1529	4323
1	1567	4324
1	1603	4325
1	1635	4326
1	1660	4327
1	1680	4328
1	1701	4329
1	1712	4330
1	1712	4331
1	1694	4332
1	1675	4333
1	1639	4334
1	1607	4335
1	1567	4336
1	1537	4337
1	1512	4338
1	1500	4339
1	1535	4360
1	1530	4361
1	1529	4362
1	1539	4363
1	1544	4364
1	1555	4365
1	1566	4366
1	1571	4367
1	1573	4368
1	1569	4369
1	1561	4370
1	1557	4371
1	1555	4372
1	1548	4373
1	1543	4374
1	1543	4375
1	1545	4376
1	1553	4377
1	1553	4378
1	1557	4379
1	1503	4340
1	1518	4341
1	1538	4342
1	1561	4343
1	1593	4344
1	1628	4345
1	1659	4346
1	1685	4347
1	1708	4348
1	1712	4349
1	1712	4350
1	1690	4351
1	1670	4352
1	1647	4353
1	1625	4354
1	1599	4355
1	1580	4356
1	1567	4357
1	1553	4358
1	1543	4359
1	1572	4380
1	1593	4381
1	1613	4382
1	1641	4383
1	1671	4384
1	1699	4385
1	1724	4386
1	1734	4387
1	1712	4388
1	1681	4389
1	1640	4390
1	1595	4391
1	1550	4392
1	1494	4393
1	1447	4394
1	1412	4395
1	1377	4396
1	1358	4397
1	1357	4398
1	1371	4399
1	1399	4400
1	1441	4401
1	1490	4402
1	1544	4403
1	1607	4404
1	1674	4405
1	1741	4406
1	1799	4407
1	1848	4408
1	1871	4409
1	1877	4410
1	1868	4411
1	1841	4412
1	1791	4413
1	1737	4414
1	1675	4415
1	1621	4416
1	1576	4417
1	1531	4418
1	1503	4419
1	1485	4420
1	1487	4421
1	1504	4422
1	1525	4423
1	1540	4424
1	1555	4425
1	1571	4426
1	1587	4427
1	1607	4428
1	1618	4429
1	1620	4430
1	1615	4431
1	1607	4432
1	1591	4433
1	1571	4434
1	1545	4435
1	1513	4436
1	1489	4437
1	1476	4438
1	1473	4439
1	1480	4440
1	1511	4441
1	1541	4442
1	1581	4443
1	1620	4444
1	1667	4445
1	1713	4446
1	1754	4447
1	1775	4448
1	1791	4449
1	1793	4450
1	1787	4451
1	1764	4452
1	1741	4453
1	1704	4454
1	1661	4455
1	1622	4456
1	1589	4457
1	1573	4458
1	1571	4459
1	1581	4460
1	1595	4461
1	1613	4462
1	1634	4463
1	1660	4464
1	1693	4465
1	1715	4466
1	1739	4467
1	1742	4468
1	1726	4469
1	1703	4470
1	1679	4471
1	1649	4472
1	1616	4473
1	1581	4474
1	1548	4475
1	1525	4476
1	1513	4477
1	1503	4478
1	1509	4479
1	1556	4500
1	1595	4501
1	1641	4502
1	1688	4503
1	1727	4504
1	1754	4505
1	1777	4506
1	1788	4507
1	1780	4508
1	1765	4509
1	1744	4510
1	1710	4511
1	1672	4512
1	1636	4513
1	1594	4514
1	1557	4515
1	1529	4516
1	1517	4517
1	1512	4518
1	1514	4519
1	1526	4480
1	1543	4481
1	1569	4482
1	1589	4483
1	1607	4484
1	1629	4485
1	1642	4486
1	1647	4487
1	1651	4488
1	1638	4489
1	1628	4490
1	1614	4491
1	1598	4492
1	1571	4493
1	1541	4494
1	1508	4495
1	1490	4496
1	1489	4497
1	1500	4498
1	1526	4499
1	1521	4520
1	1529	4521
1	1539	4522
1	1554	4523
1	1575	4524
1	1598	4525
1	1620	4526
1	1644	4527
1	1660	4528
1	1667	4529
1	1660	4530
1	1653	4531
1	1642	4532
1	1625	4533
1	1607	4534
1	1592	4535
1	1579	4536
1	1570	4537
1	1560	4538
1	1562	4539
1	1568	4540
1	1585	4541
1	1609	4542
1	1642	4543
1	1672	4544
1	1694	4545
1	1712	4546
1	1715	4547
1	1710	4548
1	1691	4549
1	1667	4550
1	1634	4551
1	1598	4552
1	1556	4553
1	1528	4554
1	1502	4555
1	1484	4556
1	1471	4557
1	1467	4558
1	1469	4559
1	1476	4560
1	1491	4561
1	1508	4562
1	1530	4563
1	1555	4564
1	1593	4565
1	1635	4566
1	1679	4567
1	1706	4568
1	1726	4569
1	1739	4570
1	1739	4571
1	1738	4572
1	1712	4573
1	1665	4574
1	1615	4575
1	1567	4576
1	1529	4577
1	1496	4578
1	1482	4579
1	1489	4580
1	1503	4581
1	1526	4582
1	1544	4583
1	1566	4584
1	1581	4585
1	1590	4586
1	1596	4587
1	1591	4588
1	1580	4589
1	1572	4590
1	1555	4591
1	1540	4592
1	1520	4593
1	1512	4594
1	1521	4595
1	1543	4596
1	1572	4597
1	1598	4598
1	1629	4599
1	1657	4600
1	1683	4601
1	1701	4602
1	1711	4603
1	1720	4604
1	1728	4605
1	1733	4606
1	1733	4607
1	1731	4608
1	1719	4609
1	1701	4610
1	1681	4611
1	1660	4612
1	1632	4613
1	1606	4614
1	1582	4615
1	1564	4616
1	1546	4617
1	1543	4618
1	1548	4619
1	1567	4620
1	1595	4621
1	1629	4622
1	1660	4623
1	1686	4624
1	1711	4625
1	1738	4626
1	1764	4627
1	1778	4628
1	1785	4629
1	1775	4630
1	1754	4631
1	1728	4632
1	1701	4633
1	1659	4634
1	1623	4635
1	1580	4636
1	1548	4637
1	1527	4638
1	1521	4639
1	1528	4640
1	1536	4641
1	1547	4642
1	1557	4643
1	1587	4644
1	1621	4645
1	1660	4646
1	1697	4647
1	1728	4648
1	1749	4649
1	1767	4650
1	1777	4651
1	1770	4652
1	1751	4653
1	1718	4654
1	1684	4655
1	1647	4656
1	1615	4657
1	1580	4658
1	1554	4659
1	1507	4680
1	1516	4681
1	1532	4682
1	1551	4683
1	1571	4684
1	1593	4685
1	1608	4686
1	1625	4687
1	1629	4688
1	1638	4689
1	1646	4690
1	1647	4691
1	1644	4692
1	1626	4693
1	1598	4694
1	1568	4695
1	1537	4696
1	1510	4697
1	1490	4698
1	1485	4699
1	1540	4660
1	1542	4661
1	1555	4662
1	1577	4663
1	1595	4664
1	1621	4665
1	1649	4666
1	1674	4667
1	1695	4668
1	1704	4669
1	1698	4670
1	1678	4671
1	1656	4672
1	1620	4673
1	1584	4674
1	1555	4675
1	1533	4676
1	1525	4677
1	1512	4678
1	1506	4679
1	1497	4700
1	1518	4701
1	1545	4702
1	1571	4703
1	1607	4704
1	1646	4705
1	1687	4706
1	1734	4707
1	1767	4708
1	1793	4709
1	1812	4710
1	1801	4711
1	1778	4712
1	1741	4713
1	1700	4714
1	1660	4715
1	1620	4716
1	1586	4717
1	1555	4718
1	1544	4719
1	1553	4720
1	1577	4721
1	1616	4722
1	1662	4723
1	1710	4724
1	1764	4725
1	1824	4726
1	1872	4727
1	1916	4728
1	1930	4729
1	1922	4730
1	1898	4731
1	1859	4732
1	1800	4733
1	1737	4734
1	1662	4735
1	1598	4736
1	1539	4737
1	1494	4738
1	1463	4739
1	1448	4740
1	1452	4741
1	1472	4742
1	1500	4743
1	1525	4744
1	1553	4745
1	1583	4746
1	1609	4747
1	1616	4748
1	1618	4749
1	1607	4750
1	1593	4751
1	1580	4752
1	1572	4753
1	1561	4754
1	1557	4755
1	1557	4756
1	1566	4757
1	1586	4758
1	1625	4759
1	1672	4760
1	1728	4761
1	1787	4762
1	1854	4763
1	1930	4764
1	2013	4765
1	2094	4766
1	2179	4767
1	2255	4768
1	2314	4769
1	2368	4770
1	2419	4771
1	2457	4772
1	2480	4773
1	2488	4774
1	2487	4775
1	2479	4776
1	2458	4777
1	2419	4778
1	2386	4779
1	2358	4780
1	2341	4781
1	2339	4782
1	2327	4783
1	2317	4784
1	2301	4785
1	2279	4786
1	2249	4787
1	2202	4788
1	2140	4789
1	2067	4790
1	1985	4791
1	1890	4792
1	1783	4793
1	1682	4794
1	1577	4795
1	1477	4796
1	1398	4797
1	1321	4798
1	1273	4799
1	1242	4800
1	1233	4801
1	1238	4802
1	1248	4803
1	1271	4804
1	1301	4805
1	1332	4806
1	1368	4807
1	1395	4808
1	1413	4809
1	1422	4810
1	1424	4811
1	1415	4812
1	1411	4813
1	1405	4814
1	1407	4815
1	1417	4816
1	1430	4817
1	1449	4818
1	1470	4819
1	1503	4820
1	1544	4821
1	1587	4822
1	1630	4823
1	1677	4824
1	1724	4825
1	1757	4826
1	1782	4827
1	1795	4828
1	1800	4829
1	1789	4830
1	1773	4831
1	1746	4832
1	1705	4833
1	1665	4834
1	1632	4835
1	1597	4836
1	1577	4837
1	1569	4838
1	1572	4839
1	1575	4860
1	1573	4861
1	1585	4862
1	1610	4863
1	1640	4864
1	1669	4865
1	1699	4866
1	1729	4867
1	1747	4868
1	1761	4869
1	1760	4870
1	1751	4871
1	1739	4872
1	1723	4873
1	1704	4874
1	1683	4875
1	1662	4876
1	1650	4877
1	1647	4878
1	1654	4879
1	1585	4840
1	1607	4841
1	1632	4842
1	1665	4843
1	1704	4844
1	1750	4845
1	1803	4846
1	1853	4847
1	1887	4848
1	1910	4849
1	1923	4850
1	1922	4851
1	1898	4852
1	1854	4853
1	1798	4854
1	1739	4855
1	1685	4856
1	1634	4857
1	1607	4858
1	1585	4859
1	1669	4880
1	1692	4881
1	1719	4882
1	1746	4883
1	1774	4884
1	1814	4885
1	1844	4886
1	1872	4887
1	1881	4888
1	1874	4889
1	1854	4890
1	1817	4891
1	1773	4892
1	1730	4893
1	1687	4894
1	1647	4895
1	1618	4896
1	1600	4897
1	1597	4898
1	1612	4899
1	1641	4900
1	1681	4901
1	1723	4902
1	1765	4903
1	1816	4904
1	1856	4905
1	1892	4906
1	1921	4907
1	1945	4908
1	1956	4909
1	1961	4910
1	1960	4911
1	1948	4912
1	1917	4913
1	1883	4914
1	1845	4915
1	1814	4916
1	1791	4917
1	1770	4918
1	1764	4919
1	1764	4920
1	1790	4921
1	1823	4922
1	1856	4923
1	1890	4924
1	1922	4925
1	1950	4926
1	1969	4927
1	1968	4928
1	1957	4929
1	1935	4930
1	1898	4931
1	1856	4932
1	1817	4933
1	1760	4934
1	1701	4935
1	1660	4936
1	1607	4937
1	1573	4938
1	1547	4939
1	1541	4940
1	1549	4941
1	1569	4942
1	1607	4943
1	1657	4944
1	1712	4945
1	1768	4946
1	1829	4947
1	1880	4948
1	1920	4949
1	1941	4950
1	1957	4951
1	1949	4952
1	1935	4953
1	1914	4954
1	1893	4955
1	1869	4956
1	1845	4957
1	1823	4958
1	1817	4959
1	1825	4960
1	1843	4961
1	1873	4962
1	1914	4963
1	1965	4964
1	2019	4965
1	2066	4966
1	2103	4967
1	2128	4968
1	2133	4969
1	2130	4970
1	2105	4971
1	2055	4972
1	1998	4973
1	1942	4974
1	1893	4975
1	1851	4976
1	1831	4977
1	1827	4978
1	1838	4979
1	1857	4980
1	1881	4981
1	1899	4982
1	1922	4983
1	1947	4984
1	1972	4985
1	1999	4986
1	2028	4987
1	2052	4988
1	2069	4989
1	2078	4990
1	2075	4991
1	2068	4992
1	2043	4993
1	2013	4994
1	1990	4995
1	1971	4996
1	1962	4997
1	1962	4998
1	1975	4999
1	1998	5000
1	2030	5001
1	2076	5002
1	2120	5003
1	2166	5004
1	2207	5005
1	2239	5006
1	2265	5007
1	2279	5008
1	2286	5009
1	2277	5010
1	2257	5011
1	2222	5012
1	2183	5013
1	2136	5014
1	2087	5015
1	2034	5016
1	1985	5017
1	1937	5018
1	1904	5019
1	1886	5020
1	1877	5021
1	1885	5022
1	1907	5023
1	1937	5024
1	1971	5025
1	2000	5026
1	2026	5027
1	2044	5028
1	2052	5029
1	2052	5030
1	2052	5031
1	2041	5032
1	2025	5033
1	2003	5034
1	1982	5035
1	1955	5036
1	1931	5037
1	1911	5038
1	1895	5039
1	1883	5040
1	1875	5041
1	1881	5042
1	1884	5043
1	1890	5044
1	1895	5045
1	1900	5046
1	1899	5047
1	1891	5048
1	1883	5049
1	1869	5050
1	1854	5051
1	1836	5052
1	1803	5053
1	1770	5054
1	1744	5055
1	1718	5056
1	1697	5057
1	1677	5058
1	1665	5059
1	1674	5060
1	1686	5061
1	1700	5062
1	1712	5063
1	1713	5064
1	1715	5065
1	1718	5066
1	1722	5067
1	1721	5068
1	1720	5069
1	1713	5070
1	1705	5071
1	1688	5072
1	1666	5073
1	1641	5074
1	1616	5075
1	1600	5076
1	1593	5077
1	1579	5078
1	1569	5079
1	1567	5080
1	1579	5081
1	1602	5082
1	1623	5083
1	1647	5084
1	1670	5085
1	1688	5086
1	1696	5087
1	1697	5088
1	1696	5089
1	1680	5090
1	1651	5091
1	1616	5092
1	1577	5093
1	1543	5094
1	1508	5095
1	1477	5096
1	1459	5097
1	1449	5098
1	1442	5099
1	1448	5100
1	1461	5101
1	1480	5102
1	1508	5103
1	1541	5104
1	1572	5105
1	1603	5106
1	1634	5107
1	1652	5108
1	1665	5109
1	1671	5110
1	1662	5111
1	1656	5112
1	1634	5113
1	1607	5114
1	1580	5115
1	1549	5116
1	1518	5117
1	1488	5118
1	1458	5119
1	1442	5120
1	1436	5121
1	1448	5122
1	1464	5123
1	1494	5124
1	1528	5125
1	1553	5126
1	1582	5127
1	1606	5128
1	1607	5129
1	1605	5130
1	1586	5131
1	1559	5132
1	1539	5133
1	1513	5134
1	1494	5135
1	1482	5136
1	1472	5137
1	1464	5138
1	1468	5139
1	1437	5160
1	1450	5161
1	1476	5162
1	1517	5163
1	1557	5164
1	1604	5165
1	1651	5166
1	1697	5167
1	1727	5168
1	1744	5169
1	1746	5170
1	1725	5171
1	1700	5172
1	1657	5173
1	1607	5174
1	1553	5175
1	1495	5176
1	1450	5177
1	1416	5178
1	1398	5179
1	1482	5140
1	1505	5141
1	1535	5142
1	1568	5143
1	1599	5144
1	1634	5145
1	1668	5146
1	1701	5147
1	1723	5148
1	1733	5149
1	1726	5150
1	1710	5151
1	1679	5152
1	1626	5153
1	1580	5154
1	1535	5155
1	1500	5156
1	1476	5157
1	1452	5158
1	1440	5159
1	1394	5180
1	1405	5181
1	1430	5182
1	1460	5183
1	1495	5184
1	1530	5185
1	1561	5186
1	1594	5187
1	1618	5188
1	1629	5189
1	1630	5190
1	1622	5191
1	1612	5192
1	1607	5193
1	1600	5194
1	1593	5195
1	1582	5196
1	1575	5197
1	1567	5198
1	1566	5199
1	1572	5200
1	1583	5201
1	1612	5202
1	1642	5203
1	1670	5204
1	1690	5205
1	1698	5206
1	1692	5207
1	1685	5208
1	1674	5209
1	1661	5210
1	1647	5211
1	1626	5212
1	1593	5213
1	1559	5214
1	1527	5215
1	1498	5216
1	1477	5217
1	1464	5218
1	1455	5219
1	1463	5220
1	1481	5221
1	1517	5222
1	1561	5223
1	1619	5224
1	1673	5225
1	1724	5226
1	1768	5227
1	1793	5228
1	1808	5229
1	1791	5230
1	1762	5231
1	1714	5232
1	1660	5233
1	1596	5234
1	1547	5235
1	1500	5236
1	1467	5237
1	1438	5238
1	1429	5239
1	1435	5240
1	1449	5241
1	1470	5242
1	1503	5243
1	1548	5244
1	1594	5245
1	1638	5246
1	1675	5247
1	1703	5248
1	1721	5249
1	1717	5250
1	1706	5251
1	1683	5252
1	1652	5253
1	1621	5254
1	1586	5255
1	1560	5256
1	1542	5257
1	1518	5258
1	1500	5259
1	1491	5260
1	1503	5261
1	1533	5262
1	1555	5263
1	1581	5264
1	1608	5265
1	1635	5266
1	1660	5267
1	1683	5268
1	1692	5269
1	1697	5270
1	1688	5271
1	1673	5272
1	1639	5273
1	1607	5274
1	1572	5275
1	1541	5276
1	1517	5277
1	1501	5278
1	1494	5279
1	1501	5280
1	1521	5281
1	1551	5282
1	1580	5283
1	1607	5284
1	1636	5285
1	1664	5286
1	1688	5287
1	1699	5288
1	1709	5289
1	1704	5290
1	1692	5291
1	1675	5292
1	1646	5293
1	1607	5294
1	1572	5295
1	1543	5296
1	1527	5297
1	1510	5298
1	1503	5299
1	1505	5300
1	1526	5301
1	1553	5302
1	1579	5303
1	1604	5304
1	1633	5305
1	1660	5306
1	1697	5307
1	1720	5308
1	1733	5309
1	1733	5310
1	1719	5311
1	1698	5312
1	1670	5313
1	1631	5314
1	1589	5315
1	1543	5316
1	1502	5317
1	1468	5318
1	1449	5319
1	1448	5320
1	1453	5321
1	1477	5322
1	1515	5323
1	1557	5324
1	1607	5325
1	1657	5326
1	1697	5327
1	1720	5328
1	1720	5329
1	1714	5330
1	1701	5331
1	1682	5332
1	1656	5333
1	1633	5334
1	1611	5335
1	1597	5336
1	1586	5337
1	1589	5338
1	1590	5339
1	1594	5340
1	1602	5341
1	1616	5342
1	1621	5343
1	1623	5344
1	1630	5345
1	1638	5346
1	1647	5347
1	1644	5348
1	1641	5349
1	1631	5350
1	1611	5351
1	1602	5352
1	1581	5353
1	1556	5354
1	1535	5355
1	1521	5356
1	1517	5357
1	1526	5358
1	1544	5359
1	1569	5360
1	1597	5361
1	1625	5362
1	1648	5363
1	1680	5364
1	1708	5365
1	1724	5366
1	1739	5367
1	1741	5368
1	1737	5369
1	1719	5370
1	1699	5371
1	1674	5372
1	1643	5373
1	1604	5374
1	1559	5375
1	1517	5376
1	1490	5377
1	1474	5378
1	1475	5379
1	1486	5400
1	1500	5401
1	1521	5402
1	1550	5403
1	1580	5404
1	1611	5405
1	1647	5406
1	1687	5407
1	1713	5408
1	1733	5409
1	1737	5410
1	1728	5411
1	1718	5412
1	1697	5413
1	1665	5414
1	1634	5415
1	1598	5416
1	1575	5417
1	1557	5418
1	1554	5419
1	1481	5380
1	1490	5381
1	1512	5382
1	1542	5383
1	1587	5384
1	1636	5385
1	1683	5386
1	1722	5387
1	1746	5388
1	1757	5389
1	1756	5390
1	1744	5391
1	1717	5392
1	1674	5393
1	1626	5394
1	1580	5395
1	1538	5396
1	1511	5397
1	1494	5398
1	1484	5399
1	1562	5420
1	1580	5421
1	1600	5422
1	1622	5423
1	1647	5424
1	1680	5425
1	1707	5426
1	1738	5427
1	1755	5428
1	1752	5429
1	1751	5430
1	1737	5431
1	1708	5432
1	1686	5433
1	1660	5434
1	1637	5435
1	1620	5436
1	1605	5437
1	1591	5438
1	1584	5439
1	1584	5440
1	1586	5441
1	1590	5442
1	1600	5443
1	1611	5444
1	1622	5445
1	1636	5446
1	1660	5447
1	1679	5448
1	1688	5449
1	1690	5450
1	1688	5451
1	1685	5452
1	1661	5453
1	1633	5454
1	1607	5455
1	1584	5456
1	1575	5457
1	1563	5458
1	1557	5459
1	1557	5480
1	1560	5481
1	1569	5482
1	1585	5483
1	1607	5484
1	1632	5485
1	1648	5486
1	1662	5487
1	1665	5488
1	1672	5489
1	1664	5490
1	1651	5491
1	1638	5492
1	1620	5493
1	1598	5494
1	1577	5495
1	1551	5496
1	1526	5497
1	1503	5498
1	1488	5499
1	1488	5500
1	1502	5501
1	1533	5502
1	1571	5503
1	1611	5504
1	1648	5505
1	1676	5506
1	1701	5507
1	1719	5508
1	1737	5509
1	1744	5510
1	1738	5511
1	1725	5512
1	1706	5513
1	1680	5514
1	1648	5515
1	1618	5516
1	1590	5517
1	1567	5518
1	1555	5519
1	1555	5500
1	1581	5501
1	1619	5502
1	1656	5503
1	1694	5504
1	1727	5505
1	1752	5506
1	1773	5507
1	1783	5508
1	1792	5509
1	1792	5510
1	1783	5511
1	1769	5512
1	1744	5513
1	1713	5514
1	1679	5515
1	1649	5516
1	1634	5517
1	1625	5518
1	1620	5519
1	1537	5540
1	1525	5541
1	1526	5542
1	1541	5543
1	1565	5544
1	1593	5545
1	1625	5546
1	1660	5547
1	1688	5548
1	1711	5549
1	1716	5550
1	1708	5551
1	1686	5552
1	1654	5553
1	1618	5554
1	1584	5555
1	1554	5556
1	1529	5557
1	1511	5558
1	1510	5559
1	1625	5520
1	1634	5521
1	1647	5522
1	1664	5523
1	1680	5524
1	1692	5525
1	1699	5526
1	1708	5527
1	1710	5528
1	1711	5529
1	1716	5530
1	1728	5531
1	1731	5532
1	1724	5533
1	1704	5534
1	1687	5535
1	1657	5536
1	1630	5537
1	1593	5538
1	1556	5539
1	1525	5560
1	1545	5561
1	1581	5562
1	1611	5563
1	1646	5564
1	1677	5565
1	1707	5566
1	1738	5567
1	1760	5568
1	1777	5569
1	1786	5570
1	1779	5571
1	1760	5572
1	1719	5573
1	1683	5574
1	1641	5575
1	1598	5576
1	1564	5577
1	1534	5578
1	1513	5579
1	1503	5580
1	1506	5581
1	1525	5582
1	1551	5583
1	1583	5584
1	1621	5585
1	1664	5586
1	1703	5587
1	1727	5588
1	1741	5589
1	1742	5590
1	1738	5591
1	1729	5592
1	1712	5593
1	1686	5594
1	1660	5595
1	1638	5596
1	1621	5597
1	1607	5598
1	1593	5599
1	1589	5600
1	1592	5601
1	1607	5602
1	1621	5603
1	1646	5604
1	1673	5605
1	1697	5606
1	1717	5607
1	1725	5608
1	1717	5609
1	1712	5610
1	1698	5611
1	1681	5612
1	1659	5613
1	1631	5614
1	1596	5615
1	1566	5616
1	1547	5617
1	1535	5618
1	1540	5619
1	2314	5640
1	2385	5641
1	2445	5642
1	2503	5643
1	2545	5644
1	2580	5645
1	2592	5646
1	2591	5647
1	2563	5648
1	2523	5649
1	2476	5650
1	2412	5651
1	2344	5652
1	2270	5653
1	2183	5654
1	2093	5655
1	2008	5656
1	1926	5657
1	1843	5658
1	1749	5659
1	1554	5620
1	1576	5621
1	1608	5622
1	1647	5623
1	1692	5624
1	1744	5625
1	1798	5626
1	1846	5627
1	1881	5628
1	1907	5629
1	1932	5630
1	1953	5631
1	1976	5632
1	1999	5633
1	2025	5634
1	2052	5635
1	2084	5636
1	2133	5637
1	2197	5638
1	2254	5639
1	1658	5660
1	1574	5661
1	1502	5662
1	1436	5663
1	1384	5664
1	1349	5665
1	1333	5666
1	1337	5667
1	1345	5668
1	1346	5669
1	1346	5670
1	1333	5671
1	1311	5672
1	1293	5673
1	1269	5674
1	1250	5675
1	1247	5676
1	1255	5677
1	1267	5678
1	1293	5679
1	1330	5680
1	1370	5681
1	1425	5682
1	1476	5683
1	1531	5684
1	1580	5685
1	1611	5686
1	1634	5687
1	1650	5688
1	1660	5689
1	1661	5690
1	1660	5691
1	1660	5692
1	1645	5693
1	1630	5694
1	1607	5695
1	1581	5696
1	1561	5697
1	1546	5698
1	1544	5699
1	1554	5700
1	1569	5701
1	1590	5702
1	1623	5703
1	1658	5704
1	1686	5705
1	1713	5706
1	1742	5707
1	1756	5708
1	1769	5709
1	1776	5710
1	1765	5711
1	1760	5712
1	1737	5713
1	1700	5714
1	1656	5715
1	1616	5716
1	1586	5717
1	1565	5718
1	1557	5719
1	1559	5720
1	1580	5721
1	1597	5722
1	1618	5723
1	1647	5724
1	1687	5725
1	1724	5726
1	1767	5727
1	1803	5728
1	1826	5729
1	1823	5730
1	1817	5731
1	1790	5732
1	1751	5733
1	1698	5734
1	1646	5735
1	1592	5736
1	1544	5737
1	1518	5738
1	1511	5739
1	1517	5740
1	1537	5741
1	1569	5742
1	1611	5743
1	1660	5744
1	1714	5745
1	1769	5746
1	1817	5747
1	1844	5748
1	1858	5749
1	1857	5750
1	1843	5751
1	1816	5752
1	1769	5753
1	1728	5754
1	1687	5755
1	1647	5756
1	1615	5757
1	1590	5758
1	1579	5759
1	1580	5760
1	1590	5761
1	1607	5762
1	1629	5763
1	1657	5764
1	1691	5765
1	1727	5766
1	1759	5767
1	1782	5768
1	1802	5769
1	1803	5770
1	1790	5771
1	1775	5772
1	1752	5773
1	1723	5774
1	1688	5775
1	1662	5776
1	1647	5777
1	1638	5778
1	1634	5779
1	1638	5780
1	1647	5781
1	1664	5782
1	1679	5783
1	1703	5784
1	1736	5785
1	1754	5786
1	1776	5787
1	1783	5788
1	1773	5789
1	1766	5790
1	1753	5791
1	1737	5792
1	1713	5793
1	1697	5794
1	1684	5795
1	1675	5796
1	1669	5797
1	1660	5798
1	1659	5799
1	1665	5800
1	1681	5801
1	1708	5802
1	1736	5803
1	1760	5804
1	1779	5805
1	1795	5806
1	1815	5807
1	1821	5808
1	1827	5809
1	1830	5810
1	1831	5811
1	1823	5812
1	1796	5813
1	1769	5814
1	1746	5815
1	1724	5816
1	1712	5817
1	1701	5818
1	1701	5819
1	1717	5820
1	1748	5821
1	1783	5822
1	1831	5823
1	1874	5824
1	1917	5825
1	1948	5826
1	1976	5827
1	1991	5828
1	1998	5829
1	1991	5830
1	1973	5831
1	1948	5832
1	1922	5833
1	1887	5834
1	1854	5835
1	1827	5836
1	1791	5837
1	1769	5838
1	1762	5839
1	1863	5860
1	1882	5861
1	1908	5862
1	1933	5863
1	1960	5864
1	1986	5865
1	2011	5866
1	2031	5867
1	2045	5868
1	2052	5869
1	2048	5870
1	2027	5871
1	2004	5872
1	1969	5873
1	1936	5874
1	1908	5875
1	1883	5876
1	1873	5877
1	1875	5878
1	1890	5879
1	1922	5880
1	1974	5881
1	2030	5882
1	2088	5883
1	2135	5884
1	2174	5885
1	2202	5886
1	2215	5887
1	2212	5888
1	2210	5889
1	2207	5890
1	2195	5891
1	2184	5892
1	2150	5893
1	2097	5894
1	2033	5895
1	1974	5896
1	1922	5897
1	1886	5898
1	1861	5899
1	1764	5840
1	1779	5841
1	1814	5842
1	1844	5843
1	1877	5844
1	1908	5845
1	1929	5846
1	1945	5847
1	1958	5848
1	1959	5849
1	1949	5850
1	1934	5851
1	1917	5852
1	1898	5853
1	1882	5854
1	1868	5855
1	1856	5856
1	1845	5857
1	1842	5858
1	1849	5859
1	1848	5900
1	1845	5901
1	1854	5902
1	1865	5903
1	1891	5904
1	1919	5905
1	1948	5906
1	1985	5907
1	2012	5908
1	2026	5909
1	2030	5910
1	2026	5911
1	2000	5912
1	1957	5913
1	1900	5914
1	1836	5915
1	1763	5916
1	1688	5917
1	1616	5918
1	1559	5919
1	1526	5920
1	1503	5921
1	1504	5922
1	1508	5923
1	1528	5924
1	1559	5925
1	1606	5926
1	1652	5927
1	1698	5928
1	1723	5929
1	1738	5930
1	1736	5931
1	1720	5932
1	1701	5933
1	1672	5934
1	1639	5935
1	1607	5936
1	1575	5937
1	1545	5938
1	1529	5939
1	1521	5940
1	1529	5941
1	1536	5942
1	1546	5943
1	1569	5944
1	1593	5945
1	1616	5946
1	1636	5947
1	1656	5948
1	1666	5949
1	1664	5950
1	1645	5951
1	1616	5952
1	1581	5953
1	1551	5954
1	1526	5955
1	1503	5956
1	1481	5957
1	1464	5958
1	1454	5959
1	1453	5960
1	1464	5961
1	1481	5962
1	1494	5963
1	1514	5964
1	1543	5965
1	1580	5966
1	1626	5967
1	1661	5968
1	1686	5969
1	1697	5970
1	1698	5971
1	1685	5972
1	1665	5973
1	1634	5974
1	1593	5975
1	1546	5976
1	1501	5977
1	1456	5978
1	1429	5979
1	1408	5980
1	1395	5981
1	1398	5982
1	1404	5983
1	1424	5984
1	1451	5985
1	1478	5986
1	1510	5987
1	1536	5988
1	1553	5989
1	1568	5990
1	1577	5991
1	1581	5992
1	1582	5993
1	1580	5994
1	1576	5995
1	1567	5996
1	1567	5997
1	1572	5998
1	1575	5999
1	1572	6000
1	1566	6001
1	1555	6002
1	1548	6003
1	1544	6004
1	1544	6005
1	1543	6006
1	1534	6007
1	1514	6008
1	1494	6009
1	1467	6010
1	1440	6011
1	1418	6012
1	1382	6013
1	1354	6014
1	1334	6015
1	1324	6016
1	1323	6017
1	1331	6018
1	1344	6019
1	1446	6040
1	1451	6041
1	1472	6042
1	1489	6043
1	1515	6044
1	1542	6045
1	1582	6046
1	1619	6047
1	1652	6048
1	1675	6049
1	1686	6050
1	1686	6051
1	1665	6052
1	1631	6053
1	1589	6054
1	1540	6055
1	1485	6056
1	1435	6057
1	1392	6058
1	1364	6059
1	1361	6020
1	1384	6021
1	1425	6022
1	1462	6023
1	1504	6024
1	1546	6025
1	1572	6026
1	1597	6027
1	1607	6028
1	1598	6029
1	1575	6030
1	1553	6031
1	1515	6032
1	1489	6033
1	1461	6034
1	1440	6035
1	1431	6036
1	1427	6037
1	1428	6038
1	1436	6039
1	1361	6060
1	1368	6061
1	1384	6062
1	1413	6063
1	1439	6064
1	1464	6065
1	1490	6066
1	1518	6067
1	1533	6068
1	1553	6069
1	1565	6070
1	1571	6071
1	1571	6072
1	1563	6073
1	1555	6074
1	1553	6075
1	1543	6076
1	1530	6077
1	1521	6078
1	1511	6079
1	1446	6100
1	1456	6101
1	1482	6102
1	1505	6103
1	1539	6104
1	1581	6105
1	1625	6106
1	1651	6107
1	1660	6108
1	1657	6109
1	1634	6110
1	1600	6111
1	1562	6112
1	1517	6113
1	1476	6114
1	1434	6115
1	1390	6116
1	1360	6117
1	1346	6118
1	1346	6119
1	1505	6080
1	1510	6081
1	1520	6082
1	1533	6083
1	1569	6084
1	1607	6085
1	1639	6086
1	1664	6087
1	1680	6088
1	1683	6089
1	1686	6090
1	1681	6091
1	1664	6092
1	1644	6093
1	1610	6094
1	1577	6095
1	1539	6096
1	1503	6097
1	1467	6098
1	1448	6099
1	1361	6120
1	1397	6121
1	1433	6122
1	1476	6123
1	1523	6124
1	1567	6125
1	1611	6126
1	1652	6127
1	1685	6128
1	1712	6129
1	1715	6130
1	1704	6131
1	1677	6132
1	1635	6133
1	1589	6134
1	1550	6135
1	1513	6136
1	1475	6137
1	1446	6138
1	1419	6139
1	1398	6140
1	1392	6141
1	1394	6142
1	1398	6143
1	1411	6144
1	1433	6145
1	1457	6146
1	1492	6147
1	1527	6148
1	1565	6149
1	1584	6150
1	1593	6151
1	1593	6152
1	1589	6153
1	1580	6154
1	1563	6155
1	1542	6156
1	1519	6157
1	1487	6158
1	1464	6159
1	1454	6160
1	1451	6161
1	1467	6162
1	1479	6163
1	1505	6164
1	1543	6165
1	1581	6166
1	1613	6167
1	1638	6168
1	1660	6169
1	1664	6170
1	1660	6171
1	1643	6172
1	1607	6173
1	1573	6174
1	1538	6175
1	1502	6176
1	1471	6177
1	1445	6178
1	1422	6179
1	1407	6180
1	1409	6181
1	1427	6182
1	1461	6183
1	1501	6184
1	1543	6185
1	1581	6186
1	1603	6187
1	1607	6188
1	1605	6189
1	1592	6190
1	1575	6191
1	1556	6192
1	1531	6193
1	1510	6194
1	1491	6195
1	1476	6196
1	1464	6197
1	1454	6198
1	1445	6199
1	1441	6200
1	1443	6201
1	1450	6202
1	1462	6203
1	1487	6204
1	1516	6205
1	1543	6206
1	1581	6207
1	1609	6208
1	1636	6209
1	1660	6210
1	1683	6211
1	1697	6212
1	1707	6213
1	1699	6214
1	1683	6215
1	1660	6216
1	1634	6217
1	1597	6218
1	1568	6219
1	1548	6220
1	1524	6221
1	1503	6222
1	1479	6223
1	1471	6224
1	1465	6225
1	1468	6226
1	1476	6227
1	1487	6228
1	1494	6229
1	1503	6230
1	1508	6231
1	1511	6232
1	1508	6233
1	1503	6234
1	1493	6235
1	1472	6236
1	1454	6237
1	1445	6238
1	1450	6239
1	1466	6240
1	1503	6241
1	1539	6242
1	1579	6243
1	1620	6244
1	1660	6245
1	1701	6246
1	1734	6247
1	1742	6248
1	1741	6249
1	1733	6250
1	1712	6251
1	1686	6252
1	1649	6253
1	1602	6254
1	1549	6255
1	1499	6256
1	1455	6257
1	1426	6258
1	1412	6259
1	1412	6260
1	1431	6261
1	1468	6262
1	1512	6263
1	1566	6264
1	1625	6265
1	1675	6266
1	1718	6267
1	1740	6268
1	1741	6269
1	1720	6270
1	1683	6271
1	1633	6272
1	1572	6273
1	1507	6274
1	1445	6275
1	1391	6276
1	1346	6277
1	1318	6278
1	1314	6279
1	1332	6280
1	1366	6281
1	1418	6282
1	1464	6283
1	1520	6284
1	1575	6285
1	1627	6286
1	1674	6287
1	1710	6288
1	1726	6289
1	1728	6290
1	1712	6291
1	1680	6292
1	1634	6293
1	1580	6294
1	1526	6295
1	1466	6296
1	1420	6297
1	1381	6298
1	1361	6299
1	1359	6300
1	1371	6301
1	1384	6302
1	1417	6303
1	1463	6304
1	1517	6305
1	1580	6306
1	1634	6307
1	1674	6308
1	1703	6309
1	1712	6310
1	1700	6311
1	1681	6312
1	1643	6313
1	1597	6314
1	1551	6315
1	1508	6316
1	1479	6317
1	1462	6318
1	1450	6319
1	1561	6340
1	1571	6341
1	1590	6342
1	1616	6343
1	1629	6344
1	1637	6345
1	1649	6346
1	1661	6347
1	1674	6348
1	1682	6349
1	1678	6350
1	1660	6351
1	1634	6352
1	1602	6353
1	1571	6354
1	1549	6355
1	1535	6356
1	1527	6357
1	1518	6358
1	1511	6359
1	1453	6320
1	1466	6321
1	1485	6322
1	1503	6323
1	1517	6324
1	1530	6325
1	1541	6326
1	1564	6327
1	1582	6328
1	1598	6329
1	1613	6330
1	1629	6331
1	1623	6332
1	1612	6333
1	1596	6334
1	1586	6335
1	1581	6336
1	1580	6337
1	1572	6338
1	1563	6339
1	1506	6360
1	1504	6361
1	1515	6362
1	1529	6363
1	1550	6364
1	1572	6365
1	1590	6366
1	1603	6367
1	1599	6368
1	1596	6369
1	1589	6370
1	1581	6371
1	1581	6372
1	1578	6373
1	1570	6374
1	1560	6375
1	1552	6376
1	1544	6377
1	1547	6378
1	1554	6379
1	1560	6380
1	1578	6381
1	1597	6382
1	1620	6383
1	1655	6384
1	1688	6385
1	1715	6386
1	1742	6387
1	1746	6388
1	1740	6389
1	1738	6390
1	1728	6391
1	1711	6392
1	1686	6393
1	1656	6394
1	1617	6395
1	1579	6396
1	1542	6397
1	1502	6398
1	1469	6399
1	1446	6400
1	1424	6401
1	1413	6402
1	1409	6403
1	1413	6404
1	1423	6405
1	1437	6406
1	1461	6407
1	1487	6408
1	1510	6409
1	1530	6410
1	1550	6411
1	1571	6412
1	1582	6413
1	1589	6414
1	1589	6415
1	1582	6416
1	1589	6417
1	1598	6418
1	1613	6419
1	1634	6420
1	1656	6421
1	1672	6422
1	1685	6423
1	1688	6424
1	1692	6425
1	1690	6426
1	1686	6427
1	1672	6428
1	1660	6429
1	1648	6430
1	1629	6431
1	1608	6432
1	1598	6433
1	1580	6434
1	1562	6435
1	1554	6436
1	1542	6437
1	1538	6438
1	1545	6439
1	1569	6440
1	1594	6441
1	1620	6442
1	1638	6443
1	1661	6444
1	1683	6445
1	1700	6446
1	1715	6447
1	1727	6448
1	1724	6449
1	1713	6450
1	1700	6451
1	1685	6452
1	1659	6453
1	1629	6454
1	1600	6455
1	1575	6456
1	1554	6457
1	1534	6458
1	1521	6459
1	1521	6460
1	1530	6461
1	1556	6462
1	1582	6463
1	1607	6464
1	1621	6465
1	1633	6466
1	1636	6467
1	1633	6468
1	1631	6469
1	1618	6470
1	1608	6471
1	1590	6472
1	1559	6473
1	1530	6474
1	1505	6475
1	1490	6476
1	1485	6477
1	1484	6478
1	1487	6479
1	1485	6480
1	1484	6481
1	1488	6482
1	1503	6483
1	1529	6484
1	1566	6485
1	1610	6486
1	1657	6487
1	1695	6488
1	1729	6489
1	1751	6490
1	1765	6491
1	1775	6492
1	1770	6493
1	1754	6494
1	1731	6495
1	1699	6496
1	1661	6497
1	1630	6498
1	1597	6499
1	1575	6500
1	1564	6501
1	1569	6502
1	1579	6503
1	1594	6504
1	1621	6505
1	1642	6506
1	1661	6507
1	1657	6508
1	1646	6509
1	1628	6510
1	1598	6511
1	1570	6512
1	1542	6513
1	1517	6514
1	1500	6515
1	1492	6516
1	1487	6517
1	1487	6518
1	1490	6519
1	1508	6520
1	1539	6521
1	1587	6522
1	1634	6523
1	1686	6524
1	1724	6525
1	1752	6526
1	1780	6527
1	1800	6528
1	1809	6529
1	1779	6530
1	1742	6531
1	1703	6532
1	1659	6533
1	1612	6534
1	1566	6535
1	1526	6536
1	1493	6537
1	1472	6538
1	1459	6539
1	2037	6560
1	2130	6561
1	2232	6562
1	2318	6563
1	2419	6564
1	2515	6565
1	2588	6566
1	2653	6567
1	2688	6568
1	2702	6569
1	2689	6570
1	2658	6571
1	2607	6572
1	2542	6573
1	2470	6574
1	2377	6575
1	2296	6576
1	2215	6577
1	2142	6578
1	2075	6579
1	1458	6540
1	1469	6541
1	1498	6542
1	1533	6543
1	1575	6544
1	1613	6545
1	1655	6546
1	1693	6547
1	1723	6548
1	1752	6549
1	1781	6550
1	1793	6551
1	1808	6552
1	1803	6553
1	1802	6554
1	1812	6555
1	1825	6556
1	1850	6557
1	1895	6558
1	1955	6559
1	2021	6580
1	1970	6581
1	1924	6582
1	1872	6583
1	1821	6584
1	1764	6585
1	1707	6586
1	1652	6587
1	1609	6588
1	1566	6589
1	1517	6590
1	1473	6591
1	1431	6592
1	1381	6593
1	1320	6594
1	1262	6595
1	1206	6596
1	1165	6597
1	1133	6598
1	1108	6599
1	1105	6600
1	1122	6601
1	1161	6602
1	1215	6603
1	1288	6604
1	1364	6605
1	1448	6606
1	1520	6607
1	1571	6608
1	1613	6609
1	1648	6610
1	1668	6611
1	1680	6612
1	1685	6613
1	1668	6614
1	1647	6615
1	1620	6616
1	1587	6617
1	1555	6618
1	1530	6619
1	1616	6640
1	1616	6641
1	1623	6642
1	1636	6643
1	1647	6644
1	1671	6645
1	1692	6646
1	1708	6647
1	1715	6648
1	1714	6649
1	1698	6650
1	1677	6651
1	1660	6652
1	1639	6653
1	1629	6654
1	1620	6655
1	1618	6656
1	1620	6657
1	1638	6658
1	1652	6659
1	1511	6620
1	1503	6621
1	1513	6622
1	1517	6623
1	1530	6624
1	1556	6625
1	1586	6626
1	1623	6627
1	1652	6628
1	1674	6629
1	1694	6630
1	1714	6631
1	1716	6632
1	1727	6633
1	1716	6634
1	1705	6635
1	1688	6636
1	1671	6637
1	1649	6638
1	1629	6639
1	1662	6660
1	1675	6661
1	1691	6662
1	1707	6663
1	1715	6664
1	1718	6665
1	1720	6666
1	1729	6667
1	1737	6668
1	1741	6669
1	1746	6670
1	1741	6671
1	1739	6672
1	1722	6673
1	1697	6674
1	1670	6675
1	1649	6676
1	1634	6677
1	1616	6678
1	1607	6679
1	1603	6680
1	1608	6681
1	1619	6682
1	1628	6683
1	1643	6684
1	1668	6685
1	1697	6686
1	1737	6687
1	1767	6688
1	1793	6689
1	1809	6690
1	1796	6691
1	1774	6692
1	1746	6693
1	1711	6694
1	1672	6695
1	1637	6696
1	1612	6697
1	1587	6698
1	1572	6699
1	1568	6700
1	1574	6701
1	1598	6702
1	1631	6703
1	1665	6704
1	1703	6705
1	1737	6706
1	1764	6707
1	1782	6708
1	1798	6709
1	1817	6710
1	1825	6711
1	1826	6712
1	1817	6713
1	1803	6714
1	1787	6715
1	1767	6716
1	1753	6717
1	1746	6718
1	1739	6719
1	1744	6740
1	1759	6741
1	1777	6742
1	1791	6743
1	1812	6744
1	1821	6745
1	1827	6746
1	1829	6747
1	1817	6748
1	1801	6749
1	1788	6750
1	1773	6751
1	1760	6752
1	1737	6753
1	1707	6754
1	1686	6755
1	1660	6756
1	1634	6757
1	1629	6758
1	1626	6759
1	1634	6740
1	1657	6741
1	1695	6742
1	1729	6743
1	1765	6744
1	1809	6745
1	1841	6746
1	1855	6747
1	1851	6748
1	1843	6749
1	1819	6750
1	1791	6751
1	1764	6752
1	1743	6753
1	1724	6754
1	1712	6755
1	1701	6756
1	1697	6757
1	1694	6758
1	1704	6759
1	1730	6760
1	1764	6761
1	1827	6762
1	1877	6763
1	1927	6764
1	1976	6765
1	2022	6766
1	2063	6767
1	2089	6768
1	2102	6769
1	2101	6770
1	2084	6771
1	2060	6772
1	2012	6773
1	1960	6774
1	1903	6775
1	1843	6776
1	1783	6777
1	1730	6778
1	1694	6779
1	1900	6800
1	1883	6801
1	1872	6802
1	1870	6803
1	1886	6804
1	1908	6805
1	1935	6806
1	1963	6807
1	1998	6808
1	2013	6809
1	2025	6810
1	2030	6811
1	2032	6812
1	2028	6813
1	2017	6814
1	2000	6815
1	1975	6816
1	1957	6817
1	1936	6818
1	1929	6819
1	1677	6780
1	1686	6781
1	1713	6782
1	1760	6783
1	1818	6784
1	1881	6785
1	1947	6786
1	2000	6787
1	2057	6788
1	2102	6789
1	2132	6790
1	2156	6791
1	2168	6792
1	2156	6793
1	2127	6794
1	2090	6795
1	2050	6796
1	2004	6797
1	1962	6798
1	1926	6799
1	1931	6820
1	1935	6821
1	1944	6822
1	1950	6823
1	1966	6824
1	1985	6825
1	2000	6826
1	2010	6827
1	2006	6828
1	1983	6829
1	1965	6830
1	1942	6831
1	1910	6832
1	1881	6833
1	1843	6834
1	1803	6835
1	1767	6836
1	1733	6837
1	1697	6838
1	1665	6839
1	1643	6840
1	1638	6841
1	1639	6842
1	1657	6843
1	1677	6844
1	1702	6845
1	1730	6846
1	1755	6847
1	1769	6848
1	1783	6849
1	1785	6850
1	1769	6851
1	1746	6852
1	1722	6853
1	1691	6854
1	1664	6855
1	1645	6856
1	1628	6857
1	1611	6858
1	1597	6859
1	1586	6860
1	1580	6861
1	1581	6862
1	1581	6863
1	1581	6864
1	1585	6865
1	1590	6866
1	1593	6867
1	1586	6868
1	1581	6869
1	1572	6870
1	1557	6871
1	1539	6872
1	1511	6873
1	1484	6874
1	1461	6875
1	1448	6876
1	1442	6877
1	1441	6878
1	1449	6879
1	1450	6880
1	1467	6881
1	1489	6882
1	1503	6883
1	1516	6884
1	1528	6885
1	1543	6886
1	1559	6887
1	1575	6888
1	1576	6889
1	1557	6890
1	1542	6891
1	1513	6892
1	1476	6893
1	1436	6894
1	1403	6895
1	1373	6896
1	1368	6897
1	1358	6898
1	1355	6899
1	1359	6900
1	1371	6901
1	1391	6902
1	1409	6903
1	1434	6904
1	1460	6905
1	1488	6906
1	1516	6907
1	1535	6908
1	1555	6909
1	1572	6910
1	1570	6911
1	1559	6912
1	1548	6913
1	1521	6914
1	1500	6915
1	1475	6916
1	1442	6917
1	1418	6918
1	1401	6919
1	1401	6920
1	1422	6921
1	1451	6922
1	1482	6923
1	1508	6924
1	1534	6925
1	1556	6926
1	1574	6927
1	1581	6928
1	1581	6929
1	1570	6930
1	1566	6931
1	1538	6932
1	1517	6933
1	1494	6934
1	1481	6935
1	1476	6936
1	1472	6937
1	1469	6938
1	1463	6939
1	1469	6940
1	1476	6941
1	1490	6942
1	1503	6943
1	1507	6944
1	1511	6945
1	1520	6946
1	1521	6947
1	1514	6948
1	1502	6949
1	1482	6950
1	1466	6951
1	1447	6952
1	1424	6953
1	1399	6954
1	1373	6955
1	1359	6956
1	1347	6957
1	1346	6958
1	1345	6959
1	1353	6960
1	1363	6961
1	1376	6962
1	1401	6963
1	1426	6964
1	1454	6965
1	1487	6966
1	1517	6967
1	1527	6968
1	1527	6969
1	1521	6970
1	1502	6971
1	1476	6972
1	1449	6973
1	1420	6974
1	1395	6975
1	1373	6976
1	1368	6977
1	1369	6978
1	1372	6979
1	1384	6980
1	1406	6981
1	1437	6982
1	1477	6983
1	1529	6984
1	1584	6985
1	1644	6986
1	1710	6987
1	1764	6988
1	1801	6989
1	1816	6990
1	1822	6991
1	1809	6992
1	1779	6993
1	1738	6994
1	1687	6995
1	1634	6996
1	1589	6997
1	1548	6998
1	1517	6999
1	1494	7000
1	1490	7001
1	1503	7002
1	1517	7003
1	1541	7004
1	1562	7005
1	1590	7006
1	1616	7007
1	1637	7008
1	1648	7009
1	1643	7010
1	1618	7011
1	1585	7012
1	1542	7013
1	1490	7014
1	1440	7015
1	1400	7016
1	1368	7017
1	1356	7018
1	1350	7019
1	1294	7040
1	1304	7041
1	1330	7042
1	1361	7043
1	1402	7044
1	1441	7045
1	1482	7046
1	1525	7047
1	1563	7048
1	1594	7049
1	1616	7050
1	1634	7051
1	1635	7052
1	1633	7053
1	1620	7054
1	1596	7055
1	1567	7056
1	1536	7057
1	1510	7058
1	1490	7059
1	1355	7020
1	1369	7021
1	1396	7022
1	1428	7023
1	1465	7024
1	1503	7025
1	1535	7026
1	1561	7027
1	1571	7028
1	1574	7029
1	1566	7030
1	1559	7031
1	1553	7032
1	1529	7033
1	1490	7034
1	1448	7035
1	1404	7036
1	1359	7037
1	1323	7038
1	1302	7039
1	1462	7080
1	1451	7081
1	1456	7082
1	1468	7083
1	1489	7084
1	1513	7085
1	1541	7086
1	1568	7087
1	1589	7088
1	1605	7089
1	1612	7090
1	1615	7091
1	1610	7092
1	1597	7093
1	1571	7094
1	1535	7095
1	1500	7096
1	1472	7097
1	1449	7098
1	1434	7099
1	1476	7060
1	1462	7061
1	1455	7062
1	1469	7063
1	1490	7064
1	1526	7065
1	1558	7066
1	1593	7067
1	1621	7068
1	1643	7069
1	1658	7070
1	1660	7071
1	1654	7072
1	1630	7073
1	1607	7074
1	1582	7075
1	1555	7076
1	1537	7077
1	1508	7078
1	1481	7079
1	1433	7100
1	1443	7101
1	1464	7102
1	1489	7103
1	1518	7104
1	1546	7105
1	1576	7106
1	1599	7107
1	1620	7108
1	1626	7109
1	1619	7110
1	1605	7111
1	1581	7112
1	1551	7113
1	1521	7114
1	1495	7115
1	1476	7116
1	1463	7117
1	1449	7118
1	1445	7119
1	1449	7120
1	1459	7121
1	1489	7122
1	1512	7123
1	1530	7124
1	1548	7125
1	1570	7126
1	1593	7127
1	1613	7128
1	1621	7129
1	1623	7130
1	1616	7131
1	1594	7132
1	1569	7133
1	1538	7134
1	1504	7135
1	1476	7136
1	1449	7137
1	1428	7138
1	1423	7139
1	1424	7140
1	1439	7141
1	1451	7142
1	1474	7143
1	1505	7144
1	1553	7145
1	1597	7146
1	1638	7147
1	1661	7148
1	1677	7149
1	1682	7150
1	1668	7151
1	1638	7152
1	1602	7153
1	1555	7154
1	1517	7155
1	1486	7156
1	1465	7157
1	1450	7158
1	1449	7159
1	1460	7160
1	1488	7161
1	1529	7162
1	1566	7163
1	1613	7164
1	1660	7165
1	1700	7166
1	1737	7167
1	1750	7168
1	1748	7169
1	1737	7170
1	1715	7171
1	1684	7172
1	1644	7173
1	1603	7174
1	1559	7175
1	1524	7176
1	1488	7177
1	1461	7178
1	1456	7179
1	1468	7180
1	1490	7181
1	1521	7182
1	1543	7183
1	1567	7184
1	1592	7185
1	1617	7186
1	1638	7187
1	1659	7188
1	1665	7189
1	1668	7190
1	1666	7191
1	1656	7192
1	1632	7193
1	1602	7194
1	1575	7195
1	1549	7196
1	1528	7197
1	1501	7198
1	1475	7199
1	1453	7200
1	1441	7201
1	1449	7202
1	1466	7203
1	1492	7204
1	1525	7205
1	1555	7206
1	1589	7207
1	1607	7208
1	1626	7209
1	1634	7210
1	1632	7211
1	1615	7212
1	1597	7213
1	1570	7214
1	1534	7215
1	1500	7216
1	1476	7217
1	1464	7218
1	1456	7219
1	1458	7220
1	1464	7221
1	1471	7222
1	1476	7223
1	1492	7224
1	1517	7225
1	1548	7226
1	1585	7227
1	1611	7228
1	1626	7229
1	1638	7230
1	1660	7231
1	1661	7232
1	1670	7233
1	1662	7234
1	1657	7235
1	1639	7236
1	1613	7237
1	1585	7238
1	1557	7239
1	1544	7240
1	1538	7241
1	1542	7242
1	1553	7243
1	1566	7244
1	1582	7245
1	1607	7246
1	1629	7247
1	1646	7248
1	1658	7249
1	1664	7250
1	1665	7251
1	1661	7252
1	1635	7253
1	1604	7254
1	1564	7255
1	1523	7256
1	1485	7257
1	1459	7258
1	1437	7259
1	1435	7260
1	1450	7261
1	1479	7262
1	1504	7263
1	1546	7264
1	1596	7265
1	1654	7266
1	1711	7267
1	1752	7268
1	1792	7269
1	1818	7270
1	1824	7271
1	1817	7272
1	1790	7273
1	1755	7274
1	1721	7275
1	1686	7276
1	1646	7277
1	1607	7278
1	1576	7279
1	1560	7300
1	1595	7301
1	1647	7302
1	1685	7303
1	1722	7304
1	1760	7305
1	1794	7306
1	1818	7307
1	1831	7308
1	1827	7309
1	1794	7310
1	1749	7311
1	1699	7312
1	1634	7313
1	1576	7314
1	1527	7315
1	1490	7316
1	1474	7317
1	1467	7318
1	1472	7319
1	1547	7280
1	1524	7281
1	1503	7282
1	1488	7283
1	1485	7284
1	1482	7285
1	1491	7286
1	1511	7287
1	1525	7288
1	1533	7289
1	1540	7290
1	1541	7291
1	1540	7292
1	1537	7293
1	1538	7294
1	1536	7295
1	1537	7296
1	1539	7297
1	1535	7298
1	1542	7299
1	1488	7320
1	1510	7321
1	1535	7322
1	1556	7323
1	1580	7324
1	1597	7325
1	1613	7326
1	1629	7327
1	1634	7328
1	1643	7329
1	1647	7330
1	1656	7331
1	1661	7332
1	1678	7333
1	1682	7334
1	1671	7335
1	1667	7336
1	1647	7337
1	1637	7338
1	1634	7339
1	1632	7340
1	1620	7341
1	1608	7342
1	1605	7343
1	1605	7344
1	1611	7345
1	1620	7346
1	1634	7347
1	1642	7348
1	1659	7349
1	1667	7350
1	1670	7351
1	1660	7352
1	1647	7353
1	1629	7354
1	1607	7355
1	1582	7356
1	1556	7357
1	1529	7358
1	1514	7359
1	1521	7360
1	1540	7361
1	1580	7362
1	1620	7363
1	1665	7364
1	1712	7365
1	1756	7366
1	1799	7367
1	1838	7368
1	1867	7369
1	1885	7370
1	1891	7371
1	1881	7372
1	1852	7373
1	1817	7374
1	1770	7375
1	1719	7376
1	1668	7377
1	1611	7378
1	1563	7379
1	1529	7380
1	1517	7381
1	1518	7382
1	1525	7383
1	1533	7384
1	1547	7385
1	1578	7386
1	1602	7387
1	1616	7388
1	1635	7389
1	1648	7390
1	1650	7391
1	1652	7392
1	1646	7393
1	1637	7394
1	1629	7395
1	1616	7396
1	1599	7397
1	1589	7398
1	1582	7399
1	1586	7400
1	1607	7401
1	1634	7402
1	1657	7403
1	1688	7404
1	1724	7405
1	1760	7406
1	1794	7407
1	1832	7408
1	1847	7409
1	1854	7410
1	1852	7411
1	1840	7412
1	1811	7413
1	1764	7414
1	1708	7415
1	1648	7416
1	1583	7417
1	1550	7418
1	1525	7419
1	1517	7420
1	1526	7421
1	1549	7422
1	1569	7423
1	1595	7424
1	1632	7425
1	1670	7426
1	1705	7427
1	1727	7428
1	1738	7429
1	1738	7430
1	1733	7431
1	1717	7432
1	1700	7433
1	1685	7434
1	1668	7435
1	1653	7436
1	1638	7437
1	1634	7438
1	1634	7439
1	1634	7440
1	1643	7441
1	1647	7442
1	1656	7443
1	1670	7444
1	1683	7445
1	1693	7446
1	1711	7447
1	1716	7448
1	1729	7449
1	1737	7450
1	1739	7451
1	1738	7452
1	1740	7453
1	1728	7454
1	1706	7455
1	1680	7456
1	1649	7457
1	1624	7458
1	1600	7459
1	1583	7460
1	1580	7461
1	1581	7462
1	1594	7463
1	1611	7464
1	1634	7465
1	1660	7466
1	1698	7467
1	1721	7468
1	1742	7469
1	1757	7470
1	1763	7471
1	1760	7472
1	1747	7473
1	1731	7474
1	1712	7475
1	1688	7476
1	1656	7477
1	1634	7478
1	1618	7479
1	1607	7480
1	1611	7481
1	1633	7482
1	1652	7483
1	1677	7484
1	1701	7485
1	1716	7486
1	1724	7487
1	1713	7488
1	1701	7489
1	1685	7490
1	1660	7491
1	1627	7492
1	1589	7493
1	1546	7494
1	1506	7495
1	1476	7496
1	1458	7497
1	1450	7498
1	1453	7499
1	1474	7500
1	1507	7501
1	1557	7502
1	1615	7503
1	1679	7504
1	1739	7505
1	1802	7506
1	1862	7507
1	1895	7508
1	1926	7509
1	1948	7510
1	1953	7511
1	1952	7512
1	1948	7513
1	1935	7514
1	1932	7515
1	1936	7516
1	1953	7517
1	1985	7518
1	2035	7519
1	2105	7520
1	2183	7521
1	2284	7522
1	2362	7523
1	2457	7524
1	2535	7525
1	2620	7526
1	2697	7527
1	2754	7528
1	2782	7529
1	2782	7530
1	2758	7531
1	2684	7532
1	2630	7533
1	2548	7534
1	2483	7535
1	2399	7536
1	2315	7537
1	2231	7538
1	2148	7539
1	2076	7540
1	2003	7541
1	1935	7542
1	1865	7543
1	1800	7544
1	1734	7545
1	1677	7546
1	1616	7547
1	1557	7548
1	1503	7549
1	1464	7550
1	1429	7551
1	1382	7552
1	1358	7553
1	1325	7554
1	1296	7555
1	1273	7556
1	1258	7557
1	1258	7558
1	1267	7559
1	1564	7600
1	1571	7601
1	1593	7602
1	1617	7603
1	1647	7604
1	1677	7605
1	1710	7606
1	1736	7607
1	1759	7608
1	1782	7609
1	1803	7610
1	1817	7611
1	1811	7612
1	1796	7613
1	1773	7614
1	1740	7615
1	1706	7616
1	1672	7617
1	1655	7618
1	1636	7619
1	1517	7600
1	1520	7601
1	1532	7602
1	1555	7603
1	1593	7604
1	1638	7605
1	1688	7606
1	1733	7607
1	1764	7608
1	1770	7609
1	1764	7610
1	1750	7611
1	1727	7612
1	1702	7613
1	1673	7614
1	1644	7615
1	1620	7616
1	1592	7617
1	1579	7618
1	1566	7619
1	1292	7580
1	1317	7581
1	1347	7582
1	1398	7583
1	1446	7584
1	1499	7585
1	1549	7586
1	1605	7587
1	1638	7588
1	1672	7589
1	1687	7590
1	1695	7591
1	1701	7592
1	1691	7593
1	1672	7594
1	1646	7595
1	1609	7596
1	1580	7597
1	1551	7598
1	1529	7599
1	1628	7620
1	1633	7621
1	1647	7622
1	1670	7623
1	1705	7624
1	1742	7625
1	1776	7626
1	1796	7627
1	1814	7628
1	1819	7629
1	1816	7630
1	1798	7631
1	1778	7632
1	1763	7633
1	1731	7634
1	1697	7635
1	1674	7636
1	1650	7637
1	1637	7638
1	1634	7639
1	1642	7640
1	1664	7641
1	1695	7642
1	1715	7643
1	1736	7644
1	1749	7645
1	1764	7646
1	1788	7647
1	1808	7648
1	1822	7649
1	1825	7650
1	1830	7651
1	1825	7652
1	1809	7653
1	1779	7654
1	1751	7655
1	1724	7656
1	1688	7657
1	1674	7658
1	1665	7659
1	1665	7660
1	1674	7661
1	1686	7662
1	1712	7663
1	1738	7664
1	1764	7665
1	1792	7666
1	1826	7667
1	1854	7668
1	1869	7669
1	1875	7670
1	1870	7671
1	1844	7672
1	1823	7673
1	1787	7674
1	1747	7675
1	1712	7676
1	1689	7677
1	1671	7678
1	1653	7679
1	1634	7680
1	1627	7681
1	1633	7682
1	1646	7683
1	1665	7684
1	1695	7685
1	1739	7686
1	1789	7687
1	1821	7688
1	1859	7689
1	1895	7690
1	1917	7691
1	1931	7692
1	1947	7693
1	1944	7694
1	1936	7695
1	1916	7696
1	1883	7697
1	1852	7698
1	1818	7699
1	1783	7700
1	1760	7701
1	1747	7702
1	1746	7703
1	1755	7704
1	1773	7705
1	1797	7706
1	1829	7707
1	1860	7708
1	1886	7709
1	1911	7710
1	1926	7711
1	1930	7712
1	1926	7713
1	1917	7714
1	1895	7715
1	1867	7716
1	1821	7717
1	1793	7718
1	1773	7719
1	1881	7740
1	1881	7741
1	1877	7742
1	1886	7743
1	1906	7744
1	1937	7745
1	1980	7746
1	2030	7747
1	2061	7748
1	2099	7749
1	2126	7750
1	2143	7751
1	2146	7752
1	2140	7753
1	2122	7754
1	2100	7755
1	2074	7756
1	2047	7757
1	2016	7758
1	1991	7759
1	1764	7720
1	1762	7721
1	1764	7722
1	1775	7723
1	1785	7724
1	1798	7725
1	1828	7726
1	1865	7727
1	1900	7728
1	1931	7729
1	1953	7730
1	1974	7731
1	1989	7732
1	1992	7733
1	1984	7734
1	1970	7735
1	1950	7736
1	1938	7737
1	1910	7738
1	1895	7739
1	1976	7760
1	1973	7761
1	1962	7762
1	1966	7763
1	1974	7764
1	1995	7765
1	2019	7766
1	2052	7767
1	2068	7768
1	2078	7769
1	2081	7770
1	2079	7771
1	2069	7772
1	2052	7773
1	2034	7774
1	2014	7775
1	1999	7776
1	1974	7777
1	1964	7778
1	1963	7779
1	1968	7780
1	1974	7781
1	1999	7782
1	2024	7783
1	2056	7784
1	2089	7785
1	2122	7786
1	2140	7787
1	2135	7788
1	2127	7789
1	2102	7790
1	2066	7791
1	2016	7792
1	1961	7793
1	1895	7794
1	1827	7795
1	1762	7796
1	1713	7797
1	1682	7798
1	1648	7799
1	1626	7800
1	1615	7801
1	1620	7802
1	1634	7803
1	1652	7804
1	1677	7805
1	1706	7806
1	1735	7807
1	1751	7808
1	1765	7809
1	1772	7810
1	1772	7811
1	1769	7812
1	1764	7813
1	1751	7814
1	1735	7815
1	1710	7816
1	1681	7817
1	1655	7818
1	1634	7819
1	1621	7820
1	1609	7821
1	1606	7822
1	1607	7823
1	1603	7824
1	1607	7825
1	1609	7826
1	1616	7827
1	1623	7828
1	1611	7829
1	1605	7830
1	1599	7831
1	1590	7832
1	1582	7833
1	1566	7834
1	1544	7835
1	1529	7836
1	1517	7837
1	1512	7838
1	1504	7839
1	1500	7840
1	1494	7841
1	1504	7842
1	1517	7843
1	1537	7844
1	1558	7845
1	1598	7846
1	1625	7847
1	1641	7848
1	1641	7849
1	1634	7850
1	1616	7851
1	1570	7852
1	1539	7853
1	1499	7854
1	1461	7855
1	1435	7856
1	1415	7857
1	1413	7858
1	1412	7859
1	1423	7860
1	1437	7861
1	1463	7862
1	1502	7863
1	1542	7864
1	1581	7865
1	1620	7866
1	1652	7867
1	1667	7868
1	1679	7869
1	1680	7870
1	1670	7871
1	1648	7872
1	1616	7873
1	1564	7874
1	1504	7875
1	1451	7876
1	1412	7877
1	1390	7878
1	1380	7879
1	1384	7880
1	1402	7881
1	1423	7882
1	1441	7883
1	1469	7884
1	1500	7885
1	1533	7886
1	1564	7887
1	1595	7888
1	1613	7889
1	1629	7890
1	1632	7891
1	1633	7892
1	1621	7893
1	1607	7894
1	1585	7895
1	1558	7896
1	1528	7897
1	1513	7898
1	1495	7899
1	1480	7900
1	1476	7901
1	1485	7902
1	1510	7903
1	1533	7904
1	1561	7905
1	1583	7906
1	1592	7907
1	1593	7908
1	1587	7909
1	1580	7910
1	1571	7911
1	1557	7912
1	1555	7913
1	1552	7914
1	1541	7915
1	1521	7916
1	1488	7917
1	1456	7918
1	1425	7919
1	1404	7920
1	1400	7921
1	1412	7922
1	1436	7923
1	1466	7924
1	1503	7925
1	1544	7926
1	1581	7927
1	1602	7928
1	1621	7929
1	1639	7930
1	1649	7931
1	1641	7932
1	1626	7933
1	1593	7934
1	1550	7935
1	1517	7936
1	1479	7937
1	1448	7938
1	1428	7939
1	1430	7940
1	1437	7941
1	1445	7942
1	1446	7943
1	1457	7944
1	1477	7945
1	1507	7946
1	1541	7947
1	1574	7948
1	1602	7949
1	1626	7950
1	1638	7951
1	1647	7952
1	1641	7953
1	1624	7954
1	1607	7955
1	1585	7956
1	1566	7957
1	1549	7958
1	1553	7959
1	1563	7960
1	1581	7961
1	1599	7962
1	1631	7963
1	1659	7964
1	1682	7965
1	1700	7966
1	1715	7967
1	1721	7968
1	1716	7969
1	1701	7970
1	1683	7971
1	1660	7972
1	1629	7973
1	1598	7974
1	1567	7975
1	1529	7976
1	1495	7977
1	1476	7978
1	1455	7979
1	1449	7980
1	1450	7981
1	1464	7982
1	1487	7983
1	1512	7984
1	1540	7985
1	1565	7986
1	1593	7987
1	1612	7988
1	1634	7989
1	1656	7990
1	1670	7991
1	1682	7992
1	1685	7993
1	1670	7994
1	1646	7995
1	1609	7996
1	1563	7997
1	1520	7998
1	1478	7999
1	1445	8000
1	1422	8000
1	1411	8002
1	1412	8003
1	1434	8004
1	1468	8005
1	1514	8006
1	1560	8007
1	1605	8008
1	1629	8009
1	1641	8010
1	1643	8011
1	1625	8012
1	1595	8013
1	1554	8013
1	1503	8015
1	1459	8016
1	1419	8016
1	1376	8018
1	1359	8019
1	1355	8020
1	1366	8021
1	1398	8022
1	1445	8023
1	1488	8024
1	1536	8025
1	1586	8026
1	1634	8027
1	1682	8028
1	1720	8029
1	1742	8029
1	1765	8031
1	1780	8032
1	1780	8032
1	1773	8034
1	1765	8035
1	1755	8036
1	1733	8037
1	1701	8038
1	1674	8039
1	1649	8040
1	1634	8041
1	1613	8042
1	1603	8043
1	1603	8044
1	1608	8045
1	1626	8045
1	1645	8047
1	1660	8048
1	1675	8048
1	1688	8050
1	1689	8051
1	1676	8052
1	1657	8053
1	1616	8054
1	1561	8055
1	1503	8056
1	1451	8057
1	1413	8058
1	1382	8059
1	1370	8060
1	1374	8061
1	1405	8061
1	1440	8063
1	1485	8064
1	1531	8064
1	1575	8066
1	1615	8067
1	1659	8068
1	1687	8069
1	1703	8070
1	1710	8071
1	1706	8072
1	1694	8073
1	1669	8074
1	1635	8074
1	1598	8076
1	1561	8077
1	1520	8077
1	1489	8079
1	1467	8080
1	1458	8080
1	1463	8082
1	1485	8083
1	1512	8084
1	1542	8085
1	1581	8086
1	1621	8087
1	1657	8088
1	1687	8089
1	1705	8090
1	1705	8090
1	1690	8092
1	1659	8093
1	1626	8093
1	1593	8095
1	1556	8096
1	1526	8096
1	1503	8098
1	1484	8099
1	1478	8100
1	1485	8101
1	1502	8102
1	1524	8103
1	1554	8104
1	1585	8105
1	1626	8106
1	1669	8106
1	1701	8108
1	1738	8109
1	1765	8109
1	1790	8111
1	1798	8112
1	1811	8113
1	1799	8114
1	1769	8115
1	1729	8116
1	1682	8117
1	1624	8118
1	1569	8119
1	1517	8120
1	1478	8121
1	1453	8122
1	1440	8122
1	1446	8124
1	1473	8125
1	1513	8125
1	1557	8127
1	1610	8128
1	1641	8129
1	1652	8130
1	1652	8131
1	1630	8132
1	1592	8133
1	1556	8134
1	1529	8135
1	1508	8136
1	1494	8137
1	1487	8138
1	1484	8138
1	1487	8140
1	1501	8141
1	1529	8141
1	1564	8143
1	1602	8144
1	1634	8145
1	1671	8146
1	1695	8147
1	1701	8148
1	1698	8149
1	1685	8150
1	1661	8151
1	1638	8152
1	1603	8153
1	1574	8154
1	1553	8154
1	1536	8156
1	1528	8157
1	1534	8157
1	1542	8159
1	1553	8160
1	1561	8161
1	1566	8162
1	1569	8163
1	1580	8164
1	1597	8165
1	1616	8166
1	1643	8167
1	1659	8168
1	1668	8169
1	1674	8170
1	1673	8170
1	1665	8172
1	1656	8173
1	1628	8173
1	1593	8175
1	1557	8176
1	1530	8177
1	1512	8178
1	1503	8179
1	1513	8180
1	1533	8181
1	1572	8182
1	1611	8183
1	1663	8184
1	1715	8185
1	1761	8186
1	1796	8186
1	1836	8188
1	1855	8189
1	1845	8189
1	1818	8191
1	1776	8192
1	1724	8193
1	1660	8194
1	1583	8195
1	1514	8196
1	1451	8197
1	1407	8198
1	1379	8199
1	1373	8200
1	1395	8201
1	1429	8202
1	1485	8203
1	1553	8204
1	1624	8205
1	1695	8206
1	1764	8207
1	1828	8208
1	1870	8209
1	1904	8210
1	1916	8211
1	1903	8212
1	1867	8213
1	1816	8214
1	1751	8215
1	1688	8216
1	1635	8217
1	1607	8218
1	1580	8219
1	1570	8220
1	1572	8221
1	1580	8222
1	1585	8223
1	1602	8224
1	1625	8225
1	1651	8226
1	1679	8227
1	1692	8228
1	1705	8229
1	1707	8230
1	1695	8231
1	1678	8232
1	1663	8233
1	1633	8234
1	1585	8235
1	1555	8236
1	1524	8237
1	1500	8238
1	1485	8239
1	1476	8240
1	1472	8241
1	1473	8242
1	1476	8243
1	1502	8244
1	1533	8245
1	1572	8246
1	1615	8247
1	1660	8248
1	1695	8249
1	1731	8250
1	1747	8251
1	1752	8252
1	1744	8253
1	1724	8254
1	1686	8255
1	1639	8256
1	1590	8257
1	1541	8258
1	1503	8259
1	1476	8260
1	1465	8261
1	1472	8262
1	1491	8263
1	1520	8264
1	1555	8265
1	1593	8266
1	1634	8267
1	1674	8268
1	1707	8269
1	1726	8270
1	1737	8271
1	1737	8272
1	1717	8273
1	1703	8274
1	1687	8275
1	1679	8276
1	1677	8277
1	1681	8278
1	1682	8279
1	1686	8280
1	1697	8281
1	1701	8282
1	1708	8283
1	1721	8284
1	1738	8285
1	1754	8286
1	1770	8287
1	1787	8288
1	1803	8289
1	1818	8290
1	1822	8291
1	1817	8292
1	1809	8293
1	1783	8294
1	1757	8295
1	1727	8296
1	1697	8297
1	1663	8298
1	1632	8299
1	1602	8300
1	1580	8301
1	1561	8302
1	1546	8303
1	1543	8304
1	1554	8305
1	1569	8306
1	1585	8307
1	1602	8308
1	1607	8309
1	1607	8310
1	1607	8311
1	1599	8312
1	1593	8313
1	1589	8314
1	1580	8315
1	1566	8316
1	1555	8317
1	1539	8318
1	1537	8319
1	1542	8320
1	1555	8321
1	1577	8322
1	1607	8323
1	1634	8324
1	1657	8325
1	1677	8326
1	1697	8327
1	1719	8328
1	1738	8329
1	1746	8330
1	1742	8331
1	1727	8332
1	1698	8333
1	1659	8334
1	1616	8335
1	1581	8336
1	1554	8337
1	1533	8338
1	1528	8339
1	1525	8340
1	1537	8341
1	1553	8342
1	1577	8343
1	1608	8344
1	1642	8345
1	1680	8346
1	1714	8347
1	1737	8348
1	1755	8349
1	1766	8350
1	1778	8351
1	1789	8352
1	1792	8353
1	1789	8354
1	1774	8355
1	1755	8356
1	1730	8357
1	1691	8358
1	1658	8359
1	1667	8380
1	1643	8381
1	1624	8382
1	1620	8383
1	1620	8384
1	1628	8385
1	1639	8386
1	1649	8387
1	1657	8388
1	1660	8389
1	1650	8390
1	1638	8391
1	1630	8392
1	1616	8393
1	1598	8394
1	1581	8395
1	1557	8396
1	1540	8397
1	1534	8398
1	1536	8399
1	1553	8400
1	1581	8401
1	1623	8402
1	1671	8403
1	1722	8404
1	1770	8405
1	1822	8406
1	1861	8407
1	1881	8408
1	1895	8409
1	1895	8410
1	1886	8411
1	1868	8412
1	1842	8413
1	1790	8414
1	1739	8415
1	1689	8416
1	1643	8417
1	1607	8418
1	1575	8419
1	1633	8360
1	1616	8361
1	1610	8362
1	1607	8363
1	1620	8364
1	1647	8365
1	1679	8366
1	1710	8367
1	1739	8368
1	1764	8369
1	1785	8370
1	1813	8371
1	1832	8372
1	1844	8373
1	1844	8374
1	1837	8375
1	1818	8376
1	1786	8377
1	1744	8378
1	1703	8379
1	1551	8420
1	1546	8421
1	1557	8422
1	1571	8423
1	1591	8424
1	1612	8425
1	1638	8426
1	1667	8427
1	1710	8428
1	1733	8429
1	1741	8430
1	1746	8431
1	1728	8432
1	1709	8433
1	1683	8434
1	1647	8435
1	1607	8436
1	1574	8437
1	1548	8438
1	1538	8439
1	1530	8440
1	1535	8441
1	1544	8442
1	1565	8443
1	1595	8444
1	1634	8445
1	1692	8446
1	1740	8447
1	1789	8448
1	1832	8449
1	1860	8450
1	1880	8451
1	1882	8452
1	1868	8453
1	1846	8454
1	1817	8455
1	1769	8456
1	1720	8457
1	1679	8458
1	1635	8459
1	1605	8460
1	1575	8461
1	1553	8462
1	1542	8463
1	1541	8464
1	1546	8465
1	1556	8466
1	1567	8467
1	1576	8468
1	1587	8469
1	1607	8470
1	1625	8471
1	1647	8472
1	1673	8473
1	1688	8474
1	1708	8475
1	1719	8476
1	1729	8477
1	1733	8478
1	1728	8479
1	1718	8480
1	1712	8481
1	1719	8482
1	1734	8483
1	1767	8484
1	1818	8485
1	1869	8486
1	1916	8487
1	1972	8488
1	2021	8489
1	2066	8490
1	2122	8491
1	2170	8492
1	2211	8493
1	2248	8494
1	2276	8495
1	2299	8496
1	2323	8497
1	2333	8498
1	2359	8499
1	2386	8500
1	2413	8501
1	2434	8502
1	2456	8503
1	2472	8504
1	2493	8505
1	2505	8506
1	2508	8507
1	2500	8508
1	2481	8509
1	2445	8510
1	2400	8511
1	2345	8512
1	2274	8513
1	2183	8514
1	2076	8515
1	1949	8516
1	1812	8517
1	1680	8518
1	1549	8519
1	1433	8520
1	1328	8521
1	1249	8522
1	1198	8523
1	1175	8524
1	1174	8525
1	1188	8526
1	1214	8527
1	1240	8528
1	1267	8529
1	1292	8530
1	1312	8531
1	1328	8532
1	1338	8533
1	1343	8534
1	1342	8535
1	1351	8536
1	1371	8537
1	1395	8538
1	1415	8539
1	1431	8540
1	1442	8541
1	1461	8542
1	1481	8543
1	1511	8544
1	1551	8545
1	1595	8546
1	1638	8547
1	1674	8548
1	1701	8549
1	1721	8550
1	1726	8551
1	1715	8552
1	1697	8553
1	1664	8554
1	1629	8555
1	1590	8556
1	1555	8557
1	1521	8558
1	1502	8559
1	1499	8560
1	1516	8561
1	1544	8562
1	1581	8563
1	1616	8564
1	1665	8565
1	1723	8566
1	1783	8567
1	1844	8568
1	1894	8569
1	1926	8570
1	1948	8571
1	1961	8572
1	1948	8573
1	1926	8574
1	1893	8575
1	1845	8576
1	1790	8577
1	1738	8578
1	1684	8579
1	1645	8580
1	1625	8581
1	1616	8582
1	1622	8583
1	1638	8584
1	1662	8585
1	1692	8586
1	1723	8587
1	1744	8588
1	1767	8589
1	1780	8590
1	1785	8591
1	1783	8592
1	1780	8593
1	1764	8594
1	1744	8595
1	1724	8596
1	1704	8597
1	1691	8598
1	1687	8599
1	1688	8600
1	1701	8601
1	1722	8602
1	1738	8603
1	1756	8604
1	1778	8605
1	1801	8606
1	1819	8607
1	1828	8608
1	1819	8609
1	1803	8610
1	1788	8611
1	1765	8612
1	1739	8613
1	1710	8614
1	1686	8615
1	1671	8616
1	1671	8617
1	1669	8618
1	1671	8619
1	1682	8620
1	1695	8621
1	1723	8622
1	1764	8623
1	1802	8624
1	1841	8625
1	1867	8626
1	1886	8627
1	1895	8628
1	1887	8629
1	1882	8630
1	1869	8631
1	1854	8632
1	1829	8633
1	1800	8634
1	1777	8635
1	1751	8636
1	1718	8637
1	1686	8638
1	1670	8639
1	1660	8640
1	1665	8641
1	1676	8642
1	1698	8643
1	1738	8644
1	1790	8645
1	1844	8646
1	1885	8647
1	1905	8648
1	1922	8649
1	1923	8650
1	1909	8651
1	1880	8652
1	1852	8653
1	1812	8654
1	1764	8655
1	1720	8656
1	1682	8657
1	1651	8658
1	1638	8659
1	1643	8660
1	1660	8661
1	1686	8662
1	1708	8663
1	1738	8664
1	1775	8665
1	1817	8666
1	1856	8667
1	1895	8668
1	1923	8669
1	1946	8670
1	1951	8671
1	1947	8672
1	1922	8673
1	1895	8674
1	1865	8675
1	1842	8676
1	1824	8677
1	1811	8678
1	1800	8679
1	1800	8680
1	1819	8681
1	1843	8682
1	1880	8683
1	1910	8684
1	1946	8685
1	1977	8686
1	2007	8687
1	2026	8688
1	2034	8689
1	2026	8690
1	2022	8691
1	2012	8692
1	2003	8693
1	2000	8694
1	1994	8695
1	1982	8696
1	1974	8697
1	1974	8698
1	1974	8699
1	1971	8700
1	1968	8701
1	1970	8702
1	1976	8703
1	1992	8704
1	2004	8705
1	2020	8706
1	2039	8707
1	2060	8708
1	2081	8709
1	2097	8710
1	2096	8711
1	2084	8712
1	2079	8713
1	2057	8714
1	2034	8715
1	2011	8716
1	1995	8717
1	1985	8718
1	1981	8719
1	1986	8720
1	2004	8721
1	2032	8722
1	2068	8723
1	2121	8724
1	2180	8725
1	2234	8726
1	2270	8727
1	2300	8728
1	2303	8729
1	2302	8730
1	2296	8731
1	2258	8732
1	2204	8733
1	2148	8734
1	2096	8735
1	2062	8736
1	2032	8737
1	2004	8738
1	1989	8739
1	1989	8740
1	2013	8741
1	2048	8742
1	2091	8743
1	2143	8744
1	2188	8745
1	2240	8746
1	2275	8747
1	2292	8748
1	2297	8749
1	2289	8750
1	2264	8751
1	2233	8752
1	2185	8753
1	2144	8754
1	2094	8755
1	2042	8756
1	1993	8757
1	1962	8758
1	1939	8759
1	1933	8760
1	1940	8761
1	1960	8762
1	1989	8763
1	2025	8764
1	2057	8765
1	2096	8766
1	2132	8767
1	2165	8768
1	2192	8769
1	2215	8770
1	2241	8771
1	2251	8772
1	2250	8773
1	2219	8774
1	2170	8775
1	2105	8776
1	2029	8777
1	1956	8778
1	1886	8779
1	1829	8780
1	1781	8781
1	1744	8782
1	1712	8783
1	1688	8784
1	1680	8785
1	1686	8786
1	1707	8787
1	1741	8788
1	1769	8789
1	1791	8790
1	1827	8791
1	1843	8792
1	1843	8793
1	1827	8794
1	1791	8795
1	1760	8796
1	1726	8797
1	1685	8798
1	1649	8799
1	1626	8800
1	1619	8801
1	1625	8802
1	1644	8803
1	1662	8804
1	1692	8805
1	1726	8806
1	1764	8807
1	1801	8808
1	1839	8809
1	1856	8810
1	1854	8811
1	1839	8812
1	1808	8813
1	1769	8814
1	1728	8815
1	1672	8816
1	1608	8817
1	1553	8818
1	1494	8819
1	1569	8860
1	1566	8861
1	1566	8862
1	1581	8863
1	1597	8864
1	1616	8865
1	1634	8866
1	1641	8867
1	1646	8868
1	1645	8869
1	1633	8870
1	1611	8871
1	1584	8872
1	1550	8873
1	1525	8874
1	1500	8875
1	1476	8876
1	1454	8877
1	1454	8878
1	1467	8879
1	1449	8820
1	1427	8821
1	1435	8822
1	1456	8823
1	1494	8824
1	1533	8825
1	1575	8826
1	1611	8827
1	1642	8828
1	1662	8829
1	1676	8830
1	1668	8831
1	1652	8832
1	1633	8833
1	1607	8834
1	1580	8835
1	1559	8836
1	1544	8837
1	1543	8838
1	1555	8839
1	1577	8840
1	1607	8841
1	1636	8842
1	1660	8843
1	1686	8844
1	1712	8845
1	1737	8846
1	1752	8847
1	1769	8848
1	1788	8849
1	1800	8850
1	1797	8851
1	1787	8852
1	1767	8853
1	1738	8854
1	1701	8855
1	1660	8856
1	1629	8857
1	1595	8858
1	1579	8859
1	1490	8880
1	1515	8881
1	1547	8882
1	1591	8883
1	1647	8884
1	1699	8885
1	1747	8886
1	1785	8887
1	1801	8888
1	1823	8889
1	1832	8890
1	1836	8891
1	1832	8892
1	1830	8893
1	1809	8894
1	1772	8895
1	1726	8896
1	1678	8897
1	1638	8898
1	1613	8899
1	1602	8900
1	1594	8901
1	1606	8902
1	1624	8903
1	1663	8904
1	1717	8905
1	1778	8906
1	1844	8907
1	1905	8908
1	1946	8909
1	1963	8910
1	1956	8911
1	1926	8912
1	1890	8913
1	1850	8914
1	1803	8915
1	1760	8916
1	1726	8917
1	1692	8918
1	1674	8919
1	1660	8920
1	1652	8921
1	1655	8922
1	1671	8923
1	1693	8924
1	1721	8925
1	1744	8926
1	1764	8927
1	1783	8928
1	1801	8929
1	1817	8930
1	1823	8931
1	1819	8932
1	1817	8933
1	1796	8934
1	1770	8935
1	1739	8936
1	1709	8937
1	1674	8938
1	1657	8939
1	1642	8940
1	1646	8941
1	1658	8942
1	1677	8943
1	1710	8944
1	1751	8945
1	1791	8946
1	1837	8947
1	1857	8948
1	1871	8949
1	1873	8950
1	1859	8951
1	1833	8952
1	1803	8953
1	1764	8954
1	1722	8955
1	1674	8956
1	1626	8957
1	1589	8958
1	1560	8959
1	1543	8960
1	1536	8961
1	1544	8962
1	1575	8963
1	1629	8964
1	1699	8965
1	1777	8966
1	1850	8967
1	1904	8968
1	1933	8969
1	1940	8970
1	1927	8971
1	1905	8972
1	1871	8973
1	1837	8974
1	1783	8975
1	1729	8976
1	1676	8977
1	1625	8978
1	1595	8979
1	1584	8980
1	1582	8981
1	1594	8982
1	1616	8983
1	1641	8984
1	1661	8985
1	1687	8986
1	1712	8987
1	1737	8988
1	1757	8989
1	1775	8990
1	1785	8991
1	1780	8992
1	1774	8993
1	1764	8994
1	1752	8995
1	1743	8996
1	1733	8997
1	1729	8998
1	1721	8999
1	1715	9000
1	1715	9001
1	1712	9002
1	1712	9003
1	1718	9004
1	1724	9005
1	1716	9006
1	1703	9007
1	1685	9008
1	1679	9009
1	1674	9010
1	1661	9011
1	1639	9012
1	1615	9013
1	1576	9014
1	1543	9015
1	1521	9016
1	1503	9017
1	1495	9018
1	1494	9019
1	1505	9020
1	1526	9021
1	1549	9022
1	1579	9023
1	1616	9024
1	1652	9025
1	1680	9026
1	1694	9027
1	1697	9028
1	1672	9029
1	1658	9030
1	1641	9031
1	1609	9032
1	1583	9033
1	1557	9034
1	1531	9035
1	1512	9036
1	1494	9037
1	1481	9038
1	1476	9039
1	1479	9040
1	1494	9041
1	1520	9042
1	1553	9043
1	1593	9044
1	1646	9045
1	1715	9046
1	1787	9047
1	1851	9048
1	1895	9049
1	1924	9050
1	1931	9051
1	1917	9052
1	1879	9053
1	1838	9054
1	1787	9055
1	1734	9056
1	1671	9057
1	1631	9058
1	1592	9059
1	1567	9060
1	1555	9061
1	1555	9062
1	1564	9063
1	1580	9064
1	1600	9065
1	1628	9066
1	1647	9067
1	1656	9068
1	1660	9069
1	1647	9070
1	1630	9071
1	1607	9072
1	1587	9073
1	1563	9074
1	1537	9075
1	1508	9076
1	1486	9077
1	1467	9078
1	1461	9079
1	1468	9080
1	1486	9081
1	1514	9082
1	1538	9083
1	1563	9084
1	1593	9085
1	1621	9086
1	1648	9087
1	1674	9088
1	1677	9089
1	1677	9090
1	1656	9091
1	1626	9092
1	1589	9093
1	1553	9094
1	1518	9095
1	1494	9096
1	1477	9097
1	1469	9098
1	1470	9099
1	1477	9100
1	1492	9101
1	1513	9102
1	1539	9103
1	1560	9104
1	1581	9105
1	1607	9106
1	1636	9107
1	1661	9108
1	1675	9109
1	1678	9110
1	1673	9111
1	1660	9112
1	1637	9113
1	1613	9114
1	1598	9115
1	1593	9116
1	1593	9117
1	1598	9118
1	1598	9119
1	1594	9120
1	1583	9121
1	1580	9122
1	1581	9123
1	1582	9124
1	1592	9125
1	1607	9126
1	1620	9127
1	1625	9128
1	1628	9129
1	1624	9130
1	1615	9131
1	1602	9132
1	1585	9133
1	1560	9134
1	1537	9135
1	1527	9136
1	1513	9137
1	1505	9138
1	1517	9139
1	1541	9140
1	1571	9141
1	1598	9142
1	1620	9143
1	1654	9144
1	1683	9145
1	1712	9146
1	1737	9147
1	1759	9148
1	1773	9149
1	1782	9150
1	1779	9151
1	1772	9152
1	1759	9153
1	1738	9154
1	1712	9155
1	1673	9156
1	1633	9157
1	1585	9158
1	1554	9159
1	1429	9200
1	1416	9201
1	1422	9202
1	1438	9203
1	1476	9204
1	1529	9205
1	1585	9206
1	1644	9207
1	1703	9208
1	1742	9209
1	1772	9210
1	1791	9211
1	1800	9212
1	1791	9213
1	1772	9214
1	1744	9215
1	1705	9216
1	1660	9217
1	1610	9218
1	1570	9219
1	1540	9180
1	1568	9181
1	1602	9182
1	1635	9183
1	1678	9184
1	1721	9185
1	1755	9186
1	1778	9187
1	1787	9188
1	1791	9189
1	1787	9190
1	1774	9191
1	1754	9192
1	1729	9193
1	1686	9194
1	1643	9195
1	1599	9196
1	1551	9197
1	1503	9198
1	1463	9199
1	1521	9160
1	1490	9161
1	1476	9162
1	1473	9163
1	1471	9164
1	1477	9165
1	1505	9166
1	1535	9167
1	1557	9168
1	1577	9169
1	1581	9170
1	1581	9171
1	1570	9172
1	1547	9173
1	1529	9174
1	1514	9175
1	1503	9176
1	1495	9177
1	1503	9178
1	1518	9179
1	1580	9240
1	1605	9241
1	1622	9242
1	1640	9243
1	1660	9244
1	1688	9245
1	1721	9246
1	1746	9247
1	1755	9248
1	1762	9249
1	1764	9250
1	1755	9251
1	1738	9252
1	1724	9253
1	1706	9254
1	1687	9255
1	1670	9256
1	1652	9257
1	1636	9258
1	1621	9259
1	1531	9220
1	1511	9221
1	1503	9222
1	1515	9223
1	1530	9224
1	1555	9225
1	1581	9226
1	1604	9227
1	1615	9228
1	1607	9229
1	1598	9230
1	1581	9231
1	1564	9232
1	1554	9233
1	1548	9234
1	1549	9235
1	1551	9236
1	1548	9237
1	1547	9238
1	1557	9239
1	1607	9260
1	1598	9261
1	1585	9262
1	1571	9263
1	1561	9264
1	1556	9265
1	1559	9266
1	1575	9267
1	1606	9268
1	1626	9269
1	1639	9270
1	1647	9271
1	1638	9272
1	1620	9273
1	1594	9274
1	1570	9275
1	1547	9276
1	1528	9277
1	1504	9278
1	1501	9279
1	1504	9280
1	1524	9281
1	1544	9282
1	1571	9283
1	1590	9284
1	1610	9285
1	1631	9286
1	1643	9287
1	1643	9288
1	1626	9289
1	1595	9290
1	1553	9291
1	1502	9292
1	1449	9293
1	1400	9294
1	1346	9295
1	1304	9296
1	1276	9297
1	1267	9298
1	1277	9299
1	1299	9300
1	1343	9301
1	1403	9302
1	1480	9303
1	1571	9304
1	1657	9305
1	1727	9306
1	1785	9307
1	1823	9308
1	1847	9309
1	1855	9310
1	1843	9311
1	1810	9312
1	1764	9313
1	1711	9314
1	1647	9315
1	1582	9316
1	1529	9317
1	1476	9318
1	1434	9319
1	1400	9320
1	1377	9321
1	1374	9322
1	1397	9323
1	1429	9324
1	1471	9325
1	1515	9326
1	1559	9327
1	1611	9328
1	1651	9329
1	1668	9330
1	1686	9331
1	1686	9332
1	1685	9333
1	1669	9334
1	1646	9335
1	1620	9336
1	1586	9337
1	1553	9338
1	1524	9339
1	1610	9360
1	1686	9361
1	1778	9362
1	1890	9363
1	2004	9364
1	2129	9365
1	2255	9366
1	2365	9367
1	2445	9368
1	2499	9369
1	2523	9370
1	2523	9371
1	2501	9372
1	2467	9373
1	2405	9374
1	2332	9375
1	2260	9376
1	2183	9377
1	2129	9378
1	2084	9379
1	2057	9380
1	2042	9381
1	2029	9382
1	2018	9383
1	2021	9384
1	2025	9385
1	2026	9386
1	2017	9387
1	2000	9388
1	1950	9389
1	1875	9390
1	1779	9391
1	1704	9392
1	1607	9393
1	1508	9394
1	1423	9395
1	1343	9396
1	1278	9397
1	1215	9398
1	1170	9399
1	1503	9340
1	1499	9341
1	1505	9342
1	1519	9343
1	1529	9344
1	1532	9345
1	1544	9346
1	1557	9347
1	1579	9348
1	1594	9349
1	1600	9350
1	1593	9351
1	1577	9352
1	1543	9353
1	1513	9354
1	1492	9355
1	1485	9356
1	1492	9357
1	1520	9358
1	1556	9359
1	1135	9400
1	1110	9401
1	1106	9402
1	1119	9403
1	1137	9404
1	1175	9405
1	1223	9406
1	1273	9407
1	1320	9408
1	1364	9409
1	1404	9410
1	1431	9411
1	1451	9412
1	1469	9413
1	1490	9414
1	1503	9415
1	1513	9416
1	1521	9417
1	1530	9418
1	1538	9419
1	1544	9420
1	1560	9421
1	1581	9422
1	1599	9423
1	1611	9424
1	1621	9425
1	1625	9426
1	1625	9427
1	1620	9428
1	1610	9429
1	1590	9430
1	1558	9431
1	1527	9432
1	1502	9433
1	1469	9434
1	1430	9435
1	1400	9436
1	1369	9437
1	1350	9438
1	1351	9439
1	1361	9440
1	1391	9441
1	1424	9442
1	1453	9443
1	1492	9444
1	1534	9445
1	1568	9446
1	1596	9447
1	1619	9448
1	1634	9449
1	1645	9450
1	1634	9451
1	1616	9452
1	1596	9453
1	1579	9454
1	1557	9455
1	1535	9456
1	1515	9457
1	1490	9458
1	1481	9459
1	1477	9460
1	1476	9461
1	1472	9462
1	1481	9463
1	1500	9464
1	1521	9465
1	1551	9466
1	1585	9467
1	1623	9468
1	1657	9469
1	1685	9470
1	1694	9471
1	1686	9472
1	1660	9473
1	1636	9474
1	1603	9475
1	1563	9476
1	1525	9477
1	1495	9478
1	1466	9479
1	1439	9480
1	1427	9481
1	1432	9482
1	1450	9483
1	1481	9484
1	1520	9485
1	1562	9486
1	1609	9487
1	1654	9488
1	1695	9489
1	1726	9490
1	1741	9491
1	1747	9492
1	1746	9493
1	1738	9494
1	1726	9495
1	1713	9496
1	1703	9497
1	1682	9498
1	1649	9499
1	1615	9500
1	1585	9501
1	1580	9502
1	1581	9503
1	1599	9504
1	1621	9505
1	1649	9506
1	1680	9507
1	1712	9508
1	1726	9509
1	1720	9510
1	1699	9511
1	1661	9512
1	1613	9513
1	1561	9514
1	1505	9515
1	1454	9516
1	1415	9517
1	1371	9518
1	1350	9519
1	1345	9520
1	1354	9521
1	1382	9522
1	1430	9523
1	1490	9524
1	1557	9525
1	1631	9526
1	1700	9527
1	1760	9528
1	1796	9529
1	1814	9530
1	1816	9531
1	1794	9532
1	1769	9533
1	1741	9534
1	1712	9535
1	1687	9536
1	1663	9537
1	1641	9538
1	1618	9539
1	1594	9540
1	1585	9541
1	1581	9542
1	1595	9543
1	1616	9544
1	1642	9545
1	1669	9546
1	1699	9547
1	1716	9548
1	1738	9549
1	1752	9550
1	1762	9551
1	1764	9552
1	1764	9553
1	1753	9554
1	1738	9555
1	1718	9556
1	1698	9557
1	1683	9558
1	1674	9559
1	1669	9560
1	1671	9561
1	1686	9562
1	1698	9563
1	1720	9564
1	1744	9565
1	1764	9566
1	1787	9567
1	1816	9568
1	1826	9569
1	1831	9570
1	1817	9571
1	1783	9572
1	1746	9573
1	1711	9574
1	1685	9575
1	1669	9576
1	1660	9577
1	1657	9578
1	1667	9579
1	1692	9580
1	1726	9581
1	1764	9582
1	1813	9583
1	1853	9584
1	1896	9585
1	1947	9586
1	1992	9587
1	2026	9588
1	2051	9589
1	2060	9590
1	2045	9591
1	2021	9592
1	1985	9593
1	1942	9594
1	1895	9595
1	1854	9596
1	1816	9597
1	1787	9598
1	1764	9599
1	1757	9600
1	1762	9601
1	1775	9602
1	1798	9603
1	1832	9604
1	1868	9605
1	1904	9606
1	1929	9607
1	1945	9608
1	1954	9609
1	1962	9610
1	1963	9611
1	1952	9612
1	1939	9613
1	1914	9614
1	1891	9615
1	1865	9616
1	1843	9617
1	1826	9618
1	1821	9619
1	1823	9620
1	1833	9621
1	1854	9622
1	1873	9623
1	1913	9624
1	1949	9625
1	1985	9626
1	2014	9627
1	2052	9628
1	2069	9629
1	2073	9630
1	2071	9631
1	2040	9632
1	2000	9633
1	1951	9634
1	1902	9635
1	1849	9636
1	1800	9637
1	1759	9638
1	1724	9639
1	1701	9640
1	1688	9641
1	1686	9642
1	1690	9643
1	1697	9644
1	1697	9645
1	1699	9646
1	1697	9647
1	1691	9648
1	1685	9649
1	1677	9650
1	1665	9651
1	1652	9652
1	1625	9653
1	1598	9654
1	1563	9655
1	1533	9656
1	1508	9657
1	1490	9658
1	1475	9659
1	1281	9680
1	1277	9681
1	1285	9682
1	1294	9683
1	1315	9684
1	1346	9685
1	1379	9686
1	1423	9687
1	1466	9688
1	1501	9689
1	1529	9690
1	1548	9691
1	1555	9692
1	1548	9693
1	1528	9694
1	1495	9695
1	1458	9696
1	1425	9697
1	1397	9698
1	1370	9699
1	1464	9660
1	1466	9661
1	1477	9662
1	1503	9663
1	1537	9664
1	1571	9665
1	1597	9666
1	1611	9667
1	1613	9668
1	1615	9669
1	1605	9670
1	1581	9671
1	1555	9672
1	1534	9673
1	1503	9674
1	1461	9675
1	1413	9676
1	1364	9677
1	1326	9678
1	1295	9679
1	1355	9700
1	1355	9701
1	1364	9702
1	1382	9703
1	1398	9704
1	1422	9705
1	1446	9706
1	1472	9707
1	1487	9708
1	1491	9709
1	1489	9710
1	1477	9711
1	1476	9712
1	1458	9713
1	1449	9714
1	1438	9715
1	1424	9716
1	1402	9717
1	1379	9718
1	1359	9719
1	1346	9720
1	1338	9721
1	1341	9722
1	1346	9723
1	1357	9724
1	1367	9725
1	1374	9726
1	1384	9727
1	1394	9728
1	1397	9729
1	1396	9730
1	1392	9731
1	1376	9732
1	1373	9733
1	1372	9734
1	1369	9735
1	1376	9736
1	1392	9737
1	1403	9738
1	1428	9739
1	1454	9740
1	1485	9741
1	1516	9742
1	1548	9743
1	1580	9744
1	1608	9745
1	1639	9746
1	1667	9747
1	1687	9748
1	1692	9749
1	1686	9750
1	1660	9751
1	1619	9752
1	1557	9753
1	1490	9754
1	1412	9755
1	1332	9756
1	1268	9757
1	1209	9758
1	1162	9759
1	1136	9760
1	1134	9761
1	1142	9762
1	1166	9763
1	1200	9764
1	1242	9765
1	1296	9766
1	1354	9767
1	1424	9768
1	1485	9769
1	1529	9770
1	1555	9771
1	1567	9772
1	1556	9773
1	1545	9774
1	1524	9775
1	1490	9776
1	1449	9777
1	1403	9778
1	1358	9779
1	1319	9780
1	1290	9781
1	1273	9782
1	1270	9783
1	1280	9784
1	1293	9785
1	1305	9786
1	1314	9787
1	1331	9788
1	1346	9789
1	1369	9790
1	1395	9791
1	1415	9792
1	1433	9793
1	1445	9794
1	1449	9795
1	1445	9796
1	1437	9797
1	1429	9798
1	1424	9799
1	1422	9800
1	1423	9801
1	1425	9802
1	1435	9803
1	1458	9804
1	1491	9805
1	1530	9806
1	1566	9807
1	1603	9808
1	1625	9809
1	1636	9810
1	1642	9811
1	1636	9812
1	1620	9813
1	1592	9814
1	1556	9815
1	1524	9816
1	1490	9817
1	1459	9818
1	1437	9819
1	1422	9820
1	1415	9821
1	1421	9822
1	1437	9823
1	1459	9824
1	1485	9825
1	1511	9826
1	1535	9827
1	1555	9828
1	1572	9829
1	1581	9830
1	1582	9831
1	1574	9832
1	1556	9833
1	1539	9834
1	1517	9835
1	1494	9836
1	1474	9837
1	1458	9838
1	1451	9839
1	1449	9840
1	1451	9841
1	1455	9842
1	1467	9843
1	1484	9844
1	1500	9845
1	1508	9846
1	1515	9847
1	1517	9848
1	1519	9849
1	1518	9850
1	1513	9851
1	1503	9852
1	1490	9853
1	1463	9854
1	1431	9855
1	1395	9856
1	1355	9857
1	1323	9858
1	1301	9859
1	1293	9860
1	1294	9861
1	1309	9862
1	1330	9863
1	1361	9864
1	1404	9865
1	1445	9866
1	1490	9867
1	1541	9868
1	1569	9869
1	1590	9870
1	1602	9871
1	1607	9872
1	1602	9873
1	1589	9874
1	1573	9875
1	1552	9876
1	1526	9877
1	1495	9878
1	1476	9879
1	1469	9880
1	1475	9881
1	1489	9882
1	1513	9883
1	1535	9884
1	1562	9885
1	1581	9886
1	1606	9887
1	1634	9888
1	1658	9889
1	1670	9890
1	1675	9891
1	1675	9892
1	1657	9893
1	1622	9894
1	1581	9895
1	1543	9896
1	1510	9897
1	1490	9898
1	1475	9899
1	1465	9900
1	1463	9901
1	1467	9902
1	1479	9903
1	1503	9904
1	1538	9905
1	1566	9906
1	1582	9907
1	1586	9908
1	1588	9909
1	1581	9910
1	1564	9911
1	1544	9912
1	1527	9913
1	1503	9914
1	1476	9915
1	1450	9916
1	1424	9917
1	1406	9918
1	1398	9919
1	1397	9920
1	1406	9921
1	1424	9922
1	1437	9923
1	1451	9924
1	1474	9925
1	1499	9926
1	1530	9927
1	1567	9928
1	1587	9929
1	1593	9930
1	1603	9931
1	1597	9932
1	1593	9933
1	1580	9934
1	1555	9935
1	1532	9936
1	1513	9937
1	1499	9938
1	1487	9939
1	1475	9960
1	1467	9961
1	1468	9962
1	1476	9963
1	1486	9964
1	1503	9965
1	1527	9966
1	1539	9967
1	1551	9968
1	1562	9969
1	1572	9970
1	1579	9971
1	1581	9972
1	1577	9973
1	1572	9974
1	1557	9975
1	1544	9976
1	1529	9977
1	1521	9978
1	1510	9979
1	1504	9980
1	1505	9981
1	1518	9982
1	1540	9983
1	1570	9984
1	1610	9985
1	1660	9986
1	1710	9987
1	1743	9988
1	1764	9989
1	1764	9990
1	1740	9991
1	1697	9992
1	1649	9993
1	1594	9994
1	1539	9995
1	1490	9996
1	1453	9997
1	1427	9998
1	1414	9999
1	1416	9980
1	1431	9981
1	1459	9982
1	1486	9983
1	1516	9984
1	1540	9985
1	1562	9986
1	1593	9987
1	1633	9988
1	1654	9989
1	1657	9990
1	1645	9991
1	1622	9992
1	1605	9993
1	1587	9994
1	1572	9995
1	1555	9996
1	1540	9997
1	1529	9998
1	1521	9999
1	1512	10000
1	1504	10001
1	1502	10002
1	1503	10003
1	1507	10004
1	1517	10005
1	1539	10006
1	1566	10007
1	1589	10008
1	1607	10009
1	1620	10010
1	1631	10011
1	1631	10012
1	1611	10013
1	1595	10014
1	1577	10015
1	1551	10016
1	1528	10017
1	1517	10018
1	1508	10019
1	1507	10020
1	1514	10021
1	1528	10022
1	1556	10023
1	1597	10024
1	1642	10025
1	1688	10026
1	1737	10027
1	1768	10028
1	1791	10029
1	1780	10030
1	1742	10031
1	1685	10032
1	1619	10033
1	1547	10034
1	1477	10035
1	1422	10036
1	1368	10037
1	1328	10038
1	1302	10039
1	1293	10040
1	1310	10041
1	1346	10042
1	1394	10043
1	1453	10044
1	1521	10045
1	1593	10046
1	1656	10047
1	1712	10048
1	1751	10049
1	1778	10050
1	1788	10051
1	1782	10052
1	1760	10053
1	1722	10054
1	1674	10055
1	1629	10056
1	1590	10057
1	1553	10058
1	1525	10059
1	1494	10060
1	1477	10061
1	1469	10062
1	1466	10063
1	1463	10064
1	1468	10065
1	1485	10066
1	1508	10067
1	1532	10068
1	1557	10069
1	1577	10070
1	1589	10071
1	1596	10072
1	1593	10073
1	1589	10074
1	1580	10075
1	1577	10076
1	1580	10077
1	1593	10078
1	1603	10079
1	1607	10080
1	1611	10081
1	1616	10082
1	1611	10083
1	1607	10084
1	1605	10085
1	1607	10086
1	1598	10087
1	1595	10088
1	1591	10089
1	1582	10090
1	1571	10091
1	1555	10092
1	1542	10093
1	1529	10094
1	1517	10095
1	1507	10096
1	1500	10097
1	1491	10098
1	1481	10099
1	1473	10100
1	1468	10101
1	1476	10102
1	1487	10103
1	1513	10104
1	1544	10105
1	1576	10106
1	1608	10107
1	1645	10108
1	1668	10109
1	1690	10110
1	1698	10111
1	1688	10112
1	1675	10113
1	1654	10114
1	1626	10115
1	1600	10116
1	1570	10117
1	1530	10118
1	1501	10119
1	1476	10120
1	1471	10121
1	1476	10122
1	1492	10123
1	1505	10124
1	1527	10125
1	1556	10126
1	1594	10127
1	1635	10128
1	1666	10129
1	1680	10130
1	1681	10131
1	1667	10132
1	1646	10133
1	1611	10134
