#Date:= 2024-10-01T15:19:28.740248
#Sampling Rate(Hz):= 1000
#Labels:= LOD	ECG	TS
1	3130	20
1	1566	21
1	1544	22
1	1533	23
1	1529	24
1	1542	25
1	1569	26
1	1607	27
1	1656	28
1	1705	29
1	1755	30
1	1793	31
1	1817	32
1	1813	33
1	1796	34
1	1783	35
1	1783	36
1	1763	37
1	1735	38
1	1700	39
1	1445	60
1	1425	61
1	1427	62
1	1445	63
1	1476	64
1	1506	65
1	1529	66
1	1538	67
1	1534	68
1	1528	69
1	1532	70
1	1544	71
1	1562	72
1	1585	73
1	1617	74
1	1658	75
1	1700	76
1	1748	77
1	1787	78
1	1803	79
1	1660	40
1	1636	41
1	1635	42
1	1637	43
1	1638	44
1	1649	45
1	1675	46
1	1706	47
1	1728	48
1	1737	49
1	1724	50
1	1703	51
1	1675	52
1	1644	53
1	1613	54
1	1580	55
1	1543	56
1	1524	57
1	1503	58
1	1474	59
1	1811	80
1	1795	81
1	1760	82
1	1724	83
1	1699	84
1	1685	85
1	1667	86
1	1651	87
1	1636	88
1	1634	89
1	1628	90
1	1607	91
1	1582	92
1	1562	93
1	1555	94
1	1542	95
1	1529	96
1	1515	97
1	1507	98
1	1502	99
1	1491	100
1	1481	101
1	1481	102
1	1476	103
1	1478	104
1	1491	105
1	1508	106
1	1526	107
1	1542	108
1	1555	109
1	1570	110
1	1593	111
1	1608	112
1	1616	113
1	1618	114
1	1618	115
1	1607	116
1	1590	117
1	1566	118
1	1539	119
1	1528	120
1	1513	121
1	1494	122
1	1471	123
1	1448	124
1	1425	125
1	1418	126
1	1412	127
1	1400	128
1	1393	129
1	1372	130
1	1359	131
1	1348	132
1	1362	133
1	1401	134
1	1458	135
1	1527	136
1	1598	137
1	1672	138
1	1740	139
1	1791	140
1	1825	141
1	1823	142
1	1809	143
1	1764	144
1	1712	145
1	1669	146
1	1638	147
1	1622	148
1	1626	149
1	1634	150
1	1618	151
1	1584	152
1	1535	153
1	1476	154
1	1417	155
1	1361	156
1	1310	157
1	1269	158
1	1242	159
1	1241	160
1	1256	161
1	1268	162
1	1307	163
1	1355	164
1	1412	165
1	1465	166
1	1520	167
1	1569	168
1	1610	169
1	1638	170
1	1660	171
1	1647	172
1	1611	173
1	1570	174
1	1530	175
1	1503	176
1	1492	177
1	1500	178
1	1513	179
1	1540	180
1	1559	181
1	1567	182
1	1564	183
1	1560	184
1	1555	185
1	1548	186
1	1539	187
1	1537	188
1	1541	189
1	1545	190
1	1541	191
1	1534	192
1	1521	193
1	1505	194
1	1503	195
1	1498	196
1	1494	197
1	1490	198
1	1487	199
1	1485	200
1	1490	201
1	1497	202
1	1515	203
1	1544	204
1	1573	205
1	1597	206
1	1620	207
1	1647	208
1	1677	209
1	1710	210
1	1723	211
1	1728	212
1	1736	213
1	1740	214
1	1742	215
1	1740	216
1	1715	217
1	1680	218
1	1635	219
1	1585	220
1	1530	221
1	1475	222
1	1449	223
1	1429	224
1	1423	225
1	1417	226
1	1402	227
1	1391	228
1	1391	229
1	1412	230
1	1445	231
1	1487	232
1	1530	233
1	1572	234
1	1593	235
1	1587	236
1	1564	237
1	1533	238
1	1503	239
1	1369	260
1	1372	261
1	1371	262
1	1364	263
1	1367	264
1	1391	265
1	1430	266
1	1499	267
1	1574	268
1	1628	269
1	1635	270
1	1608	271
1	1569	272
1	1526	273
1	1482	274
1	1441	275
1	1424	276
1	1418	277
1	1402	278
1	1383	279
1	1481	240
1	1464	241
1	1446	242
1	1445	243
1	1458	244
1	1487	245
1	1503	246
1	1503	247
1	1500	248
1	1494	249
1	1481	250
1	1475	251
1	1467	252
1	1465	253
1	1467	254
1	1459	255
1	1440	256
1	1416	257
1	1395	258
1	1373	259
1	1369	280
1	1366	281
1	1384	282
1	1435	283
1	1494	284
1	1539	285
1	1557	286
1	1580	287
1	1594	288
1	1607	289
1	1620	290
1	1648	291
1	1672	292
1	1688	293
1	1697	294
1	1686	295
1	1643	296
1	1607	297
1	1575	298
1	1549	299
1	1513	300
1	1465	301
1	1409	302
1	1355	303
1	1323	304
1	1305	305
1	1293	306
1	1293	307
1	1305	308
1	1337	309
1	1381	310
1	1422	311
1	1438	312
1	1445	313
1	1454	314
1	1467	315
1	1472	316
1	1475	317
1	1477	318
1	1482	319
1	1603	360
1	1537	361
1	1489	362
1	1465	363
1	1449	364
1	1439	365
1	1450	366
1	1450	367
1	1438	368
1	1417	369
1	1381	370
1	1346	371
1	1328	372
1	1337	373
1	1367	374
1	1398	375
1	1424	376
1	1435	377
1	1423	378
1	1398	379
1	1489	320
1	1503	321
1	1503	322
1	1503	323
1	1494	324
1	1476	325
1	1485	326
1	1507	327
1	1543	328
1	1575	329
1	1600	330
1	1615	331
1	1615	332
1	1612	333
1	1608	334
1	1607	335
1	1607	336
1	1618	337
1	1638	338
1	1679	339
1	1712	340
1	1740	341
1	1773	342
1	1817	343
1	1868	344
1	1924	345
1	1978	346
1	2027	347
1	2061	348
1	2079	349
1	2079	350
1	2052	351
1	1996	352
1	1940	353
1	1895	354
1	1865	355
1	1844	356
1	1800	357
1	1738	358
1	1670	359
1	1376	380
1	1372	381
1	1372	382
1	1376	383
1	1381	384
1	1396	385
1	1415	386
1	1431	387
1	1463	388
1	1503	389
1	1537	390
1	1560	391
1	1581	392
1	1590	393
1	1596	394
1	1593	395
1	1591	396
1	1566	397
1	1536	398
1	1504	399
1	1479	400
1	1467	401
1	1476	402
1	1501	403
1	1524	404
1	1530	405
1	1526	406
1	1534	407
1	1561	408
1	1586	409
1	1607	410
1	1631	411
1	1644	412
1	1647	413
1	1639	414
1	1631	415
1	1628	416
1	1624	417
1	1621	418
1	1629	419
1	1476	460
1	1424	461
1	1394	462
1	1396	463
1	1422	464
1	1465	465
1	1503	466
1	1544	467
1	1584	468
1	1613	469
1	1634	470
1	1648	471
1	1656	472
1	1673	473
1	1699	474
1	1718	475
1	1724	476
1	1728	477
1	1738	478
1	1738	479
1	1450	460
1	1440	461
1	1446	462
1	1465	463
1	1491	464
1	1523	465
1	1544	466
1	1558	467
1	1567	468
1	1576	469
1	1581	470
1	1595	471
1	1612	472
1	1612	473
1	1615	474
1	1618	475
1	1616	476
1	1597	477
1	1566	478
1	1523	479
1	1635	440
1	1631	441
1	1620	442
1	1620	443
1	1622	444
1	1628	445
1	1624	446
1	1611	447
1	1594	448
1	1581	449
1	1566	450
1	1561	451
1	1564	452
1	1566	453
1	1564	454
1	1559	455
1	1545	456
1	1525	457
1	1503	458
1	1476	459
1	1734	480
1	1720	481
1	1709	482
1	1686	483
1	1665	484
1	1638	485
1	1620	486
1	1610	487
1	1607	488
1	1607	489
1	1610	490
1	1623	491
1	1644	492
1	1656	493
1	1661	494
1	1669	495
1	1668	496
1	1670	497
1	1661	498
1	1654	499
1	1636	500
1	1628	501
1	1607	502
1	1580	503
1	1555	504
1	1553	505
1	1568	506
1	1611	507
1	1670	508
1	1737	509
1	1802	510
1	1863	511
1	1919	512
1	1952	513
1	1952	514
1	1938	515
1	1919	516
1	1877	517
1	1830	518
1	1778	519
1	1744	520
1	1712	521
1	1667	522
1	1647	523
1	1630	524
1	1625	525
1	1625	526
1	1646	527
1	1679	528
1	1708	529
1	1733	530
1	1739	531
1	1742	532
1	1727	533
1	1712	534
1	1695	535
1	1670	536
1	1651	537
1	1638	538
1	1625	539
1	1615	540
1	1617	541
1	1631	542
1	1652	543
1	1686	544
1	1738	545
1	1798	546
1	1854	547
1	1885	548
1	1906	549
1	1909	550
1	1898	551
1	1885	552
1	1866	553
1	1843	554
1	1824	555
1	1798	556
1	1764	557
1	1715	558
1	1672	559
1	1645	560
1	1649	561
1	1659	562
1	1660	563
1	1674	564
1	1675	565
1	1670	566
1	1674	567
1	1698	568
1	1730	569
1	1755	570
1	1764	571
1	1777	572
1	1790	573
1	1795	574
1	1803	575
1	1819	576
1	1827	577
1	1838	578
1	1841	579
1	1613	600
1	1580	601
1	1561	602
1	1563	603
1	1574	604
1	1590	605
1	1606	606
1	1611	607
1	1623	608
1	1646	609
1	1659	610
1	1662	611
1	1664	612
1	1663	613
1	1660	614
1	1649	615
1	1634	616
1	1619	617
1	1606	618
1	1583	619
1	1827	580
1	1816	581
1	1796	582
1	1789	583
1	1787	584
1	1795	585
1	1808	586
1	1818	587
1	1832	588
1	1837	589
1	1844	590
1	1849	591
1	1826	592
1	1808	593
1	1793	594
1	1779	595
1	1764	596
1	1741	597
1	1711	598
1	1661	599
1	1557	620
1	1542	621
1	1514	622
1	1507	623
1	1525	624
1	1533	625
1	1549	626
1	1548	627
1	1544	628
1	1530	629
1	1502	630
1	1472	631
1	1448	632
1	1431	633
1	1420	634
1	1417	635
1	1428	636
1	1447	637
1	1461	638
1	1474	639
1	1487	640
1	1494	641
1	1495	642
1	1512	643
1	1553	644
1	1608	645
1	1670	646
1	1724	647
1	1763	648
1	1790	649
1	1796	650
1	1796	651
1	1781	652
1	1746	653
1	1710	654
1	1681	655
1	1669	656
1	1675	657
1	1665	658
1	1646	659
1	1602	660
1	1539	661
1	1482	662
1	1445	663
1	1425	664
1	1434	665
1	1471	666
1	1515	667
1	1572	668
1	1638	669
1	1699	670
1	1747	671
1	1778	672
1	1791	673
1	1774	674
1	1730	675
1	1665	676
1	1613	677
1	1574	678
1	1541	679
1	1594	700
1	1582	701
1	1585	702
1	1598	703
1	1620	704
1	1651	705
1	1672	706
1	1689	707
1	1703	708
1	1704	709
1	1701	710
1	1699	711
1	1684	712
1	1670	713
1	1655	714
1	1634	715
1	1611	716
1	1586	717
1	1559	718
1	1539	719
1	1505	680
1	1481	681
1	1450	682
1	1410	683
1	1372	684
1	1356	685
1	1370	686
1	1409	687
1	1455	688
1	1516	689
1	1577	690
1	1624	691
1	1676	692
1	1715	693
1	1737	694
1	1738	695
1	1720	696
1	1683	697
1	1647	698
1	1617	699
1	1528	720
1	1512	721
1	1503	722
1	1512	723
1	1530	724
1	1555	725
1	1580	726
1	1607	727
1	1639	728
1	1662	729
1	1661	730
1	1661	731
1	1661	732
1	1651	733
1	1634	734
1	1607	735
1	1570	736
1	1536	737
1	1512	738
1	1480	739
1	1446	740
1	1425	741
1	1416	742
1	1435	743
1	1482	744
1	1554	745
1	1633	746
1	1707	747
1	1770	748
1	1826	749
1	1845	750
1	1811	751
1	1746	752
1	1687	753
1	1636	754
1	1594	755
1	1568	756
1	1527	757
1	1491	758
1	1470	759
1	1452	760
1	1445	761
1	1437	762
1	1445	763
1	1469	764
1	1491	765
1	1508	766
1	1538	767
1	1582	768
1	1633	769
1	1677	770
1	1710	771
1	1720	772
1	1719	773
1	1708	774
1	1681	775
1	1635	776
1	1566	777
1	1490	778
1	1436	779
1	1415	780
1	1428	781
1	1479	782
1	1553	783
1	1630	784
1	1707	785
1	1773	786
1	1836	787
1	1888	788
1	1930	789
1	1957	790
1	1967	791
1	1948	792
1	1888	793
1	1798	794
1	1701	795
1	1616	796
1	1548	797
1	1508	798
1	1494	799
1	1482	800
1	1478	801
1	1472	802
1	1464	803
1	1458	804
1	1455	805
1	1461	806
1	1485	807
1	1520	808
1	1571	809
1	1625	810
1	1665	811
1	1693	812
1	1700	813
1	1699	814
1	1686	815
1	1669	816
1	1634	817
1	1598	818
1	1566	819
1	1538	820
1	1513	821
1	1487	822
1	1476	823
1	1479	824
1	1508	825
1	1566	826
1	1634	827
1	1692	828
1	1738	829
1	1769	830
1	1782	831
1	1765	832
1	1741	833
1	1719	834
1	1686	835
1	1620	836
1	1542	837
1	1462	838
1	1379	839
1	1311	840
1	1251	841
1	1216	842
1	1207	843
1	1225	844
1	1273	845
1	1348	846
1	1438	847
1	1531	848
1	1633	849
1	1712	850
1	1760	851
1	1770	852
1	1764	853
1	1755	854
1	1746	855
1	1738	856
1	1739	857
1	1738	858
1	1728	859
1	1710	860
1	1704	861
1	1701	862
1	1686	863
1	1665	864
1	1656	865
1	1647	866
1	1634	867
1	1620	868
1	1613	869
1	1622	870
1	1631	871
1	1656	872
1	1680	873
1	1695	874
1	1706	875
1	1721	876
1	1728	877
1	1737	878
1	1756	879
1	1779	880
1	1809	881
1	1841	882
1	1870	883
1	1894	884
1	1905	885
1	1909	886
1	1919	887
1	1942	888
1	1972	889
1	2001	890
1	2039	891
1	2063	892
1	2075	893
1	2078	894
1	2065	895
1	2032	896
1	1986	897
1	1919	898
1	1842	899
1	1757	900
1	1685	901
1	1638	902
1	1620	903
1	1620	904
1	1636	905
1	1661	906
1	1683	907
1	1699	908
1	1711	909
1	1714	910
1	1710	911
1	1701	912
1	1701	913
1	1701	914
1	1697	915
1	1680	916
1	1657	917
1	1628	918
1	1589	919
1	1555	920
1	1544	921
1	1539	922
1	1533	923
1	1546	924
1	1566	925
1	1580	926
1	1607	927
1	1652	928
1	1698	929
1	1725	930
1	1725	931
1	1703	932
1	1669	933
1	1644	934
1	1621	935
1	1607	936
1	1599	937
1	1599	938
1	1605	939
1	1607	940
1	1593	941
1	1593	942
1	1602	943
1	1610	944
1	1617	945
1	1607	946
1	1607	947
1	1607	948
1	1607	949
1	1607	950
1	1625	951
1	1637	952
1	1652	953
1	1652	954
1	1642	955
1	1623	956
1	1589	957
1	1529	958
1	1453	959
1	1390	960
1	1335	961
1	1321	962
1	1350	963
1	1421	964
1	1510	965
1	1605	966
1	1692	967
1	1765	968
1	1814	969
1	1817	970
1	1798	971
1	1765	972
1	1738	973
1	1710	974
1	1668	975
1	1618	976
1	1585	977
1	1567	978
1	1551	979
1	1530	980
1	1526	981
1	1526	982
1	1541	983
1	1561	984
1	1585	985
1	1607	986
1	1626	987
1	1643	988
1	1638	989
1	1616	990
1	1581	991
1	1545	992
1	1516	993
1	1497	994
1	1490	995
1	1494	996
1	1502	997
1	1512	998
1	1529	999
1	1541	1000
1	1552	1001
1	1548	1002
1	1533	1003
1	1529	1004
1	1529	1005
1	1533	1006
1	1546	1007
1	1577	1008
1	1623	1009
1	1661	1010
1	1694	1011
1	1710	1012
1	1718	1013
1	1731	1014
1	1737	1015
1	1736	1016
1	1718	1017
1	1689	1018
1	1652	1019
1	1683	1060
1	1684	1061
1	1693	1062
1	1704	1063
1	1711	1064
1	1713	1065
1	1710	1066
1	1710	1067
1	1714	1068
1	1723	1069
1	1737	1070
1	1751	1071
1	1747	1072
1	1737	1073
1	1731	1074
1	1729	1075
1	1738	1076
1	1746	1077
1	1737	1078
1	1729	1079
1	1538	1040
1	1540	1041
1	1559	1042
1	1580	1043
1	1599	1044
1	1629	1045
1	1665	1046
1	1698	1047
1	1724	1048
1	1738	1049
1	1747	1050
1	1754	1051
1	1760	1052
1	1764	1053
1	1766	1054
1	1766	1055
1	1763	1056
1	1742	1057
1	1718	1058
1	1700	1059
1	1622	1020
1	1587	1021
1	1566	1022
1	1565	1023
1	1580	1024
1	1588	1025
1	1607	1026
1	1629	1027
1	1647	1028
1	1675	1029
1	1697	1030
1	1694	1031
1	1684	1032
1	1659	1033
1	1634	1034
1	1618	1035
1	1608	1036
1	1594	1037
1	1576	1038
1	1555	1039
1	1731	1080
1	1722	1081
1	1710	1082
1	1692	1083
1	1677	1084
1	1669	1085
1	1669	1086
1	1674	1087
1	1693	1088
1	1720	1089
1	1738	1090
1	1746	1091
1	1757	1092
1	1777	1093
1	1791	1094
1	1823	1095
1	1847	1096
1	1852	1097
1	1836	1098
1	1795	1099
1	1751	1100
1	1711	1101
1	1676	1102
1	1658	1103
1	1649	1104
1	1655	1105
1	1678	1106
1	1708	1107
1	1740	1108
1	1773	1109
1	1796	1110
1	1813	1111
1	1808	1112
1	1790	1113
1	1773	1114
1	1764	1115
1	1764	1116
1	1757	1117
1	1741	1118
1	1721	1119
1	1717	1120
1	1716	1121
1	1715	1122
1	1729	1123
1	1764	1124
1	1816	1125
1	1867	1126
1	1908	1127
1	1937	1128
1	1949	1129
1	1950	1130
1	1934	1131
1	1914	1132
1	1893	1133
1	1868	1134
1	1837	1135
1	1791	1136
1	1747	1137
1	1706	1138
1	1669	1139
1	1737	1160
1	1693	1161
1	1647	1162
1	1602	1163
1	1564	1164
1	1544	1165
1	1544	1166
1	1566	1167
1	1607	1168
1	1652	1169
1	1700	1170
1	1743	1171
1	1787	1172
1	1817	1173
1	1836	1174
1	1836	1175
1	1827	1176
1	1799	1177
1	1775	1178
1	1754	1179
1	1731	1180
1	1712	1181
1	1686	1182
1	1665	1183
1	1660	1184
1	1670	1185
1	1697	1186
1	1732	1187
1	1757	1188
1	1775	1189
1	1776	1190
1	1780	1191
1	1775	1192
1	1764	1193
1	1746	1194
1	1723	1195
1	1711	1196
1	1699	1197
1	1685	1198
1	1672	1199
1	1635	1140
1	1611	1141
1	1607	1142
1	1611	1143
1	1621	1144
1	1641	1145
1	1677	1146
1	1703	1147
1	1730	1148
1	1755	1149
1	1798	1150
1	1844	1151
1	1867	1152
1	1872	1153
1	1878	1154
1	1870	1155
1	1856	1156
1	1839	1157
1	1816	1158
1	1780	1159
1	1665	1200
1	1659	1201
1	1660	1202
1	1664	1203
1	1682	1204
1	1706	1205
1	1727	1206
1	1742	1207
1	1744	1208
1	1740	1209
1	1743	1210
1	1747	1211
1	1742	1212
1	1720	1213
1	1683	1214
1	1634	1215
1	1585	1216
1	1556	1217
1	1543	1218
1	1542	1219
1	1556	1220
1	1580	1221
1	1598	1222
1	1621	1223
1	1658	1224
1	1703	1225
1	1744	1226
1	1782	1227
1	1787	1228
1	1788	1229
1	1800	1230
1	1809	1231
1	1799	1232
1	1787	1233
1	1772	1234
1	1751	1235
1	1713	1236
1	1687	1237
1	1660	1238
1	1641	1239
1	1626	1240
1	1604	1241
1	1581	1242
1	1553	1243
1	1526	1244
1	1524	1245
1	1548	1246
1	1608	1247
1	1672	1248
1	1723	1249
1	1757	1250
1	1777	1251
1	1782	1252
1	1788	1253
1	1791	1254
1	1789	1255
1	1786	1256
1	1783	1257
1	1778	1258
1	1764	1259
1	1746	1260
1	1733	1261
1	1727	1262
1	1733	1263
1	1738	1264
1	1750	1265
1	1764	1266
1	1778	1267
1	1800	1268
1	1834	1269
1	1868	1270
1	1893	1271
1	1903	1272
1	1897	1273
1	1880	1274
1	1847	1275
1	1791	1276
1	1737	1277
1	1677	1278
1	1622	1279
1	1803	1300
1	1788	1301
1	1782	1302
1	1788	1303
1	1800	1304
1	1821	1305
1	1841	1306
1	1857	1307
1	1870	1308
1	1873	1309
1	1872	1310
1	1855	1311
1	1818	1312
1	1791	1313
1	1787	1314
1	1776	1315
1	1774	1316
1	1771	1317
1	1764	1318
1	1767	1319
1	1581	1280
1	1572	1281
1	1581	1282
1	1612	1283
1	1660	1284
1	1716	1285
1	1772	1286
1	1830	1287
1	1887	1288
1	1944	1289
1	1991	1290
1	2024	1291
1	2051	1292
1	2062	1293
1	2049	1294
1	2002	1295
1	1952	1296
1	1907	1297
1	1868	1298
1	1834	1299
1	1775	1320
1	1776	1321
1	1787	1322
1	1795	1323
1	1803	1324
1	1818	1325
1	1830	1326
1	1846	1327
1	1850	1328
1	1873	1329
1	1885	1330
1	1879	1331
1	1867	1332
1	1852	1333
1	1845	1334
1	1850	1335
1	1855	1336
1	1862	1337
1	1869	1338
1	1870	1339
1	1871	1340
1	1870	1341
1	1869	1342
1	1857	1343
1	1846	1344
1	1843	1345
1	1841	1346
1	1846	1347
1	1863	1348
1	1885	1349
1	1895	1350
1	1881	1351
1	1881	1352
1	1895	1353
1	1908	1354
1	1922	1355
1	1922	1356
1	1917	1357
1	1909	1358
1	1909	1359
1	1906	1360
1	1900	1361
1	1903	1362
1	1895	1363
1	1878	1364
1	1852	1365
1	1818	1366
1	1796	1367
1	1775	1368
1	1756	1369
1	1751	1370
1	1748	1371
1	1740	1372
1	1731	1373
1	1733	1374
1	1734	1375
1	1742	1376
1	1763	1377
1	1787	1378
1	1803	1379
1	1797	1380
1	1782	1381
1	1769	1382
1	1760	1383
1	1753	1384
1	1766	1385
1	1782	1386
1	1796	1387
1	1822	1388
1	1839	1389
1	1841	1390
1	1837	1391
1	1818	1392
1	1791	1393
1	1768	1394
1	1742	1395
1	1709	1396
1	1683	1397
1	1657	1398
1	1636	1399
1	1629	1400
1	1620	1401
1	1605	1402
1	1592	1403
1	1597	1404
1	1625	1405
1	1671	1406
1	1717	1407
1	1751	1408
1	1770	1409
1	1796	1410
1	1812	1411
1	1822	1412
1	1821	1413
1	1809	1414
1	1786	1415
1	1772	1416
1	1764	1417
1	1756	1418
1	1743	1419
1	1734	1420
1	1723	1421
1	1702	1422
1	1674	1423
1	1671	1424
1	1684	1425
1	1704	1426
1	1730	1427
1	1747	1428
1	1764	1429
1	1765	1430
1	1765	1431
1	1764	1432
1	1762	1433
1	1760	1434
1	1751	1435
1	1738	1436
1	1726	1437
1	1705	1438
1	1682	1439
1	1661	1440
1	1639	1441
1	1635	1442
1	1658	1443
1	1690	1444
1	1742	1445
1	1791	1446
1	1851	1447
1	1914	1448
1	1983	1449
1	2052	1450
1	2124	1451
1	2183	1452
1	2242	1453
1	2286	1454
1	2305	1455
1	2309	1456
1	2310	1457
1	2286	1458
1	2236	1459
1	2188	1460
1	2142	1461
1	2101	1462
1	2061	1463
1	2029	1464
1	1998	1465
1	1976	1466
1	1974	1467
1	1978	1468
1	1988	1469
1	1999	1470
1	1995	1471
1	1974	1472
1	1931	1473
1	1873	1474
1	1832	1475
1	1788	1476
1	1754	1477
1	1733	1478
1	1719	1479
1	1701	1480
1	1679	1481
1	1651	1482
1	1628	1483
1	1618	1484
1	1618	1485
1	1607	1486
1	1610	1487
1	1619	1488
1	1629	1489
1	1649	1490
1	1675	1491
1	1703	1492
1	1712	1493
1	1708	1494
1	1706	1495
1	1717	1496
1	1741	1497
1	1766	1498
1	1793	1499
1	1817	1500
1	1824	1501
1	1821	1502
1	1817	1503
1	1811	1504
1	1803	1505
1	1803	1506
1	1803	1507
1	1817	1508
1	1818	1509
1	1809	1510
1	1791	1511
1	1768	1512
1	1751	1513
1	1738	1514
1	1723	1515
1	1697	1516
1	1680	1517
1	1658	1518
1	1626	1519
1	1683	1540
1	1688	1541
1	1693	1542
1	1691	1543
1	1686	1544
1	1686	1545
1	1697	1546
1	1718	1547
1	1738	1548
1	1751	1549
1	1779	1550
1	1802	1551
1	1796	1552
1	1779	1553
1	1760	1554
1	1731	1555
1	1706	1556
1	1685	1557
1	1659	1558
1	1629	1559
1	1597	1520
1	1572	1521
1	1543	1522
1	1517	1523
1	1524	1524
1	1552	1525
1	1579	1526
1	1610	1527
1	1657	1528
1	1701	1529
1	1742	1530
1	1769	1531
1	1787	1532
1	1779	1533
1	1755	1534
1	1721	1535
1	1694	1536
1	1678	1537
1	1675	1538
1	1677	1539
1	1600	1560
1	1580	1561
1	1567	1562
1	1564	1563
1	1555	1564
1	1555	1565
1	1566	1566
1	1583	1567
1	1613	1568
1	1649	1569
1	1696	1570
1	1726	1571
1	1737	1572
1	1736	1573
1	1724	1574
1	1708	1575
1	1680	1576
1	1670	1577
1	1674	1578
1	1685	1579
1	1626	1600
1	1616	1601
1	1621	1602
1	1625	1603
1	1634	1604
1	1660	1605
1	1690	1606
1	1724	1607
1	1756	1608
1	1773	1609
1	1773	1610
1	1775	1611
1	1773	1612
1	1788	1613
1	1803	1614
1	1812	1615
1	1817	1616
1	1817	1617
1	1795	1618
1	1767	1619
1	1685	1580
1	1679	1581
1	1668	1582
1	1660	1583
1	1661	1584
1	1687	1585
1	1725	1586
1	1766	1587
1	1791	1588
1	1796	1589
1	1813	1590
1	1817	1591
1	1819	1592
1	1809	1593
1	1796	1594
1	1789	1595
1	1764	1596
1	1724	1597
1	1690	1598
1	1659	1599
1	1737	1620
1	1701	1621
1	1670	1622
1	1646	1623
1	1633	1624
1	1636	1625
1	1648	1626
1	1660	1627
1	1675	1628
1	1710	1629
1	1740	1630
1	1773	1631
1	1809	1632
1	1832	1633
1	1836	1634
1	1819	1635
1	1783	1636
1	1741	1637
1	1692	1638
1	1634	1639
1	1579	1640
1	1554	1641
1	1538	1642
1	1520	1643
1	1504	1644
1	1503	1645
1	1504	1646
1	1517	1647
1	1530	1648
1	1562	1649
1	1615	1650
1	1671	1651
1	1724	1652
1	1777	1653
1	1815	1654
1	1832	1655
1	1835	1656
1	1824	1657
1	1802	1658
1	1780	1659
1	1759	1660
1	1733	1661
1	1706	1662
1	1686	1663
1	1665	1664
1	1662	1665
1	1676	1666
1	1693	1667
1	1706	1668
1	1718	1669
1	1731	1670
1	1741	1671
1	1741	1672
1	1737	1673
1	1727	1674
1	1719	1675
1	1712	1676
1	1704	1677
1	1709	1678
1	1715	1679
1	1726	1680
1	1730	1681
1	1729	1682
1	1728	1683
1	1736	1684
1	1746	1685
1	1752	1686
1	1750	1687
1	1749	1688
1	1744	1689
1	1742	1690
1	1746	1691
1	1753	1692
1	1762	1693
1	1760	1694
1	1749	1695
1	1734	1696
1	1731	1697
1	1737	1698
1	1756	1699
1	1772	1700
1	1772	1701
1	1764	1702
1	1760	1703
1	1754	1704
1	1746	1705
1	1738	1706
1	1729	1707
1	1719	1708
1	1713	1709
1	1712	1710
1	1699	1711
1	1683	1712
1	1670	1713
1	1672	1714
1	1691	1715
1	1721	1716
1	1743	1717
1	1756	1718
1	1753	1719
1	1692	1740
1	1660	1741
1	1635	1742
1	1618	1743
1	1608	1744
1	1611	1745
1	1623	1746
1	1633	1747
1	1647	1748
1	1659	1749
1	1661	1750
1	1665	1751
1	1669	1752
1	1670	1753
1	1676	1754
1	1686	1755
1	1683	1756
1	1673	1757
1	1660	1758
1	1634	1759
1	1738	1720
1	1721	1721
1	1694	1722
1	1647	1723
1	1607	1724
1	1580	1725
1	1581	1726
1	1602	1727
1	1628	1728
1	1661	1729
1	1700	1730
1	1728	1731
1	1744	1732
1	1754	1733
1	1755	1734
1	1760	1735
1	1753	1736
1	1742	1737
1	1729	1738
1	1713	1739
1	1601	1760
1	1581	1761
1	1580	1762
1	1592	1763
1	1613	1764
1	1646	1765
1	1670	1766
1	1687	1767
1	1710	1768
1	1738	1769
1	1760	1770
1	1765	1771
1	1765	1772
1	1765	1773
1	1762	1774
1	1750	1775
1	1738	1776
1	1725	1777
1	1724	1778
1	1726	1779
1	1729	1800
1	1727	1801
1	1716	1802
1	1709	1803
1	1703	1804
1	1700	1805
1	1690	1806
1	1687	1807
1	1692	1808
1	1688	1809
1	1688	1810
1	1697	1811
1	1700	1812
1	1701	1813
1	1697	1814
1	1686	1815
1	1665	1816
1	1636	1817
1	1607	1818
1	1592	1819
1	1584	1800
1	1575	1801
1	1573	1802
1	1577	1803
1	1568	1804
1	1563	1805
1	1577	1806
1	1590	1807
1	1611	1808
1	1639	1809
1	1667	1810
1	1699	1811
1	1728	1812
1	1748	1813
1	1752	1814
1	1743	1815
1	1725	1816
1	1701	1817
1	1683	1818
1	1662	1819
1	1660	1820
1	1665	1821
1	1657	1822
1	1644	1823
1	1647	1824
1	1635	1825
1	1634	1826
1	1637	1827
1	1645	1828
1	1649	1829
1	1659	1830
1	1678	1831
1	1697	1832
1	1712	1833
1	1714	1834
1	1704	1835
1	1689	1836
1	1674	1837
1	1661	1838
1	1655	1839
1	1646	1840
1	1636	1841
1	1642	1842
1	1665	1843
1	1700	1844
1	1737	1845
1	1751	1846
1	1760	1847
1	1768	1848
1	1777	1849
1	1780	1850
1	1780	1851
1	1773	1852
1	1765	1853
1	1764	1854
1	1759	1855
1	1743	1856
1	1727	1857
1	1711	1858
1	1693	1859
1	1670	1860
1	1633	1861
1	1598	1862
1	1581	1863
1	1582	1864
1	1593	1865
1	1610	1866
1	1623	1867
1	1639	1868
1	1665	1869
1	1692	1870
1	1711	1871
1	1722	1872
1	1731	1873
1	1739	1874
1	1739	1875
1	1728	1876
1	1712	1877
1	1695	1878
1	1678	1879
1	1661	1880
1	1647	1881
1	1634	1882
1	1616	1883
1	1599	1884
1	1587	1885
1	1587	1886
1	1603	1887
1	1625	1888
1	1660	1889
1	1699	1890
1	1725	1891
1	1740	1892
1	1739	1893
1	1730	1894
1	1712	1895
1	1710	1896
1	1704	1897
1	1697	1898
1	1688	1899
1	1683	1900
1	1672	1901
1	1661	1902
1	1660	1903
1	1665	1904
1	1678	1905
1	1686	1906
1	1698	1907
1	1719	1908
1	1734	1909
1	1733	1910
1	1726	1911
1	1714	1912
1	1711	1913
1	1718	1914
1	1728	1915
1	1743	1916
1	1757	1917
1	1756	1918
1	1741	1919
1	1720	1920
1	1692	1921
1	1673	1922
1	1670	1923
1	1670	1924
1	1668	1925
1	1662	1926
1	1672	1927
1	1686	1928
1	1709	1929
1	1725	1930
1	1737	1931
1	1748	1932
1	1742	1933
1	1723	1934
1	1697	1935
1	1669	1936
1	1634	1937
1	1594	1938
1	1557	1939
1	1529	1940
1	1516	1941
1	1532	1942
1	1557	1943
1	1584	1944
1	1605	1945
1	1620	1946
1	1629	1947
1	1629	1948
1	1621	1949
1	1626	1950
1	1638	1951
1	1643	1952
1	1643	1953
1	1636	1954
1	1626	1955
1	1620	1956
1	1607	1957
1	1600	1958
1	1590	1959
1	1587	1960
1	1590	1961
1	1589	1962
1	1593	1963
1	1607	1964
1	1631	1965
1	1646	1966
1	1665	1967
1	1686	1968
1	1688	1969
1	1686	1970
1	1682	1971
1	1667	1972
1	1643	1973
1	1616	1974
1	1583	1975
1	1553	1976
1	1529	1977
1	1515	1978
1	1527	1979
1	1564	1980
1	1607	1981
1	1639	1982
1	1655	1983
1	1655	1984
1	1649	1985
1	1649	1986
1	1638	1987
1	1638	1988
1	1634	1989
1	1629	1990
1	1613	1991
1	1593	1992
1	1578	1993
1	1571	1994
1	1567	1995
1	1562	1996
1	1562	1997
1	1559	1998
1	1555	1999
1	1543	2000
1	1527	2001
1	1503	2002
1	1489	2003
1	1490	2004
1	1503	2005
1	1530	2006
1	1566	2007
1	1609	2008
1	1646	2009
1	1671	2010
1	1689	2011
1	1711	2012
1	1746	2013
1	1791	2014
1	1843	2015
1	1895	2016
1	1922	2017
1	1935	2018
1	1940	2019
1	1935	2020
1	1925	2021
1	1917	2022
1	1912	2023
1	1931	2024
1	1976	2025
1	2026	2026
1	2070	2027
1	2102	2028
1	2122	2029
1	2129	2030
1	2118	2031
1	2093	2032
1	2071	2033
1	2052	2034
1	2026	2035
1	1995	2036
1	1949	2037
1	1896	2038
1	1854	2039
1	1809	2040
1	1749	2041
1	1710	2042
1	1665	2043
1	1635	2044
1	1616	2045
1	1605	2046
1	1594	2047
1	1586	2048
1	1587	2049
1	1596	2050
1	1617	2051
1	1636	2052
1	1647	2053
1	1659	2054
1	1664	2055
1	1660	2056
1	1657	2057
1	1638	2058
1	1612	2059
1	1593	2060
1	1575	2061
1	1557	2062
1	1551	2063
1	1541	2064
1	1542	2065
1	1548	2066
1	1562	2067
1	1581	2068
1	1607	2069
1	1639	2070
1	1665	2071
1	1686	2072
1	1691	2073
1	1678	2074
1	1641	2075
1	1595	2076
1	1554	2077
1	1528	2078
1	1514	2079
1	1500	2080
1	1478	2081
1	1456	2082
1	1437	2083
1	1418	2084
1	1402	2085
1	1398	2086
1	1409	2087
1	1432	2088
1	1465	2089
1	1508	2090
1	1562	2091
1	1605	2092
1	1636	2093
1	1675	2094
1	1712	2095
1	1731	2096
1	1728	2097
1	1712	2098
1	1690	2099
1	1671	2100
1	1652	2101
1	1642	2102
1	1629	2103
1	1616	2104
1	1613	2105
1	1628	2106
1	1635	2107
1	1642	2108
1	1639	2109
1	1635	2110
1	1635	2111
1	1635	2112
1	1628	2113
1	1619	2114
1	1613	2115
1	1596	2116
1	1582	2117
1	1572	2118
1	1562	2119
1	1547	2140
1	1505	2141
1	1474	2142
1	1443	2143
1	1445	2144
1	1479	2145
1	1538	2146
1	1593	2147
1	1643	2148
1	1674	2149
1	1696	2150
1	1723	2151
1	1737	2152
1	1739	2153
1	1731	2154
1	1704	2155
1	1661	2156
1	1607	2157
1	1557	2158
1	1529	2159
1	1556	2120
1	1554	2121
1	1535	2122
1	1520	2123
1	1528	2124
1	1548	2125
1	1568	2126
1	1596	2127
1	1631	2128
1	1660	2129
1	1690	2130
1	1715	2131
1	1730	2132
1	1731	2133
1	1721	2134
1	1713	2135
1	1698	2136
1	1669	2137
1	1629	2138
1	1584	2139
1	1514	2160
1	1504	2161
1	1516	2162
1	1531	2163
1	1555	2164
1	1583	2165
1	1623	2166
1	1660	2167
1	1690	2168
1	1712	2169
1	1733	2170
1	1753	2171
1	1764	2172
1	1757	2173
1	1740	2174
1	1710	2175
1	1660	2176
1	1608	2177
1	1557	2178
1	1518	2179
1	1485	2180
1	1465	2181
1	1455	2182
1	1466	2183
1	1491	2184
1	1527	2185
1	1571	2186
1	1620	2187
1	1660	2188
1	1681	2189
1	1687	2190
1	1688	2191
1	1698	2192
1	1712	2193
1	1731	2194
1	1746	2195
1	1755	2196
1	1746	2197
1	1718	2198
1	1686	2199
1	1661	2200
1	1659	2201
1	1662	2202
1	1670	2203
1	1686	2204
1	1699	2205
1	1692	2206
1	1685	2207
1	1685	2208
1	1668	2209
1	1638	2210
1	1620	2211
1	1622	2212
1	1632	2213
1	1641	2214
1	1639	2215
1	1634	2216
1	1624	2217
1	1615	2218
1	1612	2219
1	1618	2220
1	1610	2221
1	1607	2222
1	1608	2223
1	1634	2224
1	1671	2225
1	1705	2226
1	1729	2227
1	1750	2228
1	1764	2229
1	1773	2230
1	1780	2231
1	1794	2232
1	1800	2233
1	1790	2234
1	1765	2235
1	1729	2236
1	1685	2237
1	1636	2238
1	1590	2239
1	1551	2240
1	1521	2241
1	1513	2242
1	1503	2243
1	1503	2244
1	1508	2245
1	1526	2246
1	1548	2247
1	1572	2248
1	1592	2249
1	1608	2250
1	1628	2251
1	1651	2252
1	1674	2253
1	1685	2254
1	1683	2255
1	1684	2256
1	1674	2257
1	1662	2258
1	1648	2259
1	1634	2260
1	1623	2261
1	1620	2262
1	1624	2263
1	1637	2264
1	1649	2265
1	1651	2266
1	1656	2267
1	1657	2268
1	1665	2269
1	1697	2270
1	1735	2271
1	1755	2272
1	1764	2273
1	1757	2274
1	1740	2275
1	1718	2276
1	1692	2277
1	1674	2278
1	1657	2279
1	1636	2280
1	1608	2281
1	1594	2282
1	1593	2283
1	1598	2284
1	1607	2285
1	1634	2286
1	1661	2287
1	1679	2288
1	1686	2289
1	1686	2290
1	1686	2291
1	1686	2292
1	1697	2293
1	1702	2294
1	1700	2295
1	1685	2296
1	1672	2297
1	1656	2298
1	1634	2299
1	1607	2300
1	1587	2301
1	1579	2302
1	1584	2303
1	1607	2304
1	1620	2305
1	1634	2306
1	1649	2307
1	1664	2308
1	1679	2309
1	1688	2310
1	1683	2311
1	1670	2312
1	1647	2313
1	1633	2314
1	1629	2315
1	1633	2316
1	1629	2317
1	1629	2318
1	1632	2319
1	1629	2320
1	1612	2321
1	1603	2322
1	1592	2323
1	1585	2324
1	1584	2325
1	1585	2326
1	1593	2327
1	1597	2328
1	1607	2329
1	1619	2330
1	1634	2331
1	1650	2332
1	1671	2333
1	1688	2334
1	1702	2335
1	1701	2336
1	1690	2337
1	1671	2338
1	1660	2339
1	1639	2340
1	1604	2341
1	1580	2342
1	1555	2343
1	1540	2344
1	1541	2345
1	1563	2346
1	1581	2347
1	1596	2348
1	1611	2349
1	1617	2350
1	1607	2351
1	1595	2352
1	1581	2353
1	1572	2354
1	1575	2355
1	1567	2356
1	1565	2357
1	1565	2358
1	1571	2359
1	1587	2360
1	1607	2361
1	1616	2362
1	1623	2363
1	1629	2364
1	1634	2365
1	1656	2366
1	1683	2367
1	1713	2368
1	1739	2369
1	1760	2370
1	1765	2371
1	1775	2372
1	1776	2373
1	1764	2374
1	1756	2375
1	1746	2376
1	1723	2377
1	1692	2378
1	1661	2379
1	1634	2380
1	1605	2381
1	1582	2382
1	1569	2383
1	1566	2384
1	1572	2385
1	1581	2386
1	1603	2387
1	1629	2388
1	1642	2389
1	1657	2390
1	1670	2391
1	1679	2392
1	1688	2393
1	1693	2394
1	1683	2395
1	1659	2396
1	1625	2397
1	1589	2398
1	1566	2399
1	1561	2400
1	1555	2401
1	1562	2402
1	1582	2403
1	1599	2404
1	1602	2405
1	1608	2406
1	1611	2407
1	1616	2408
1	1638	2409
1	1682	2410
1	1733	2411
1	1778	2412
1	1809	2413
1	1818	2414
1	1819	2415
1	1809	2416
1	1787	2417
1	1757	2418
1	1723	2419
1	1690	2420
1	1665	2421
1	1647	2422
1	1620	2423
1	1603	2424
1	1594	2425
1	1607	2426
1	1628	2427
1	1652	2428
1	1674	2429
1	1686	2430
1	1694	2431
1	1697	2432
1	1686	2433
1	1676	2434
1	1677	2435
1	1677	2436
1	1671	2437
1	1660	2438
1	1645	2439
1	1642	2440
1	1634	2441
1	1631	2442
1	1632	2443
1	1635	2444
1	1643	2445
1	1659	2446
1	1686	2447
1	1711	2448
1	1721	2449
1	1728	2450
1	1729	2451
1	1715	2452
1	1699	2453
1	1682	2454
1	1663	2455
1	1647	2456
1	1634	2457
1	1636	2458
1	1659	2459
1	1695	2460
1	1730	2461
1	1755	2462
1	1773	2463
1	1773	2464
1	1766	2465
1	1760	2466
1	1738	2467
1	1715	2468
1	1697	2469
1	1682	2470
1	1677	2471
1	1686	2472
1	1695	2473
1	1710	2474
1	1719	2475
1	1719	2476
1	1704	2477
1	1686	2478
1	1674	2479
1	1620	2500
1	1616	2501
1	1610	2502
1	1603	2503
1	1593	2504
1	1585	2505
1	1595	2506
1	1623	2507
1	1659	2508
1	1697	2509
1	1731	2510
1	1769	2511
1	1803	2512
1	1837	2513
1	1860	2514
1	1879	2515
1	1888	2516
1	1881	2517
1	1859	2518
1	1841	2519
1	1660	2480
1	1647	2481
1	1634	2482
1	1629	2483
1	1638	2484
1	1652	2485
1	1669	2486
1	1686	2487
1	1701	2488
1	1716	2489
1	1727	2490
1	1736	2491
1	1742	2492
1	1740	2493
1	1724	2494
1	1702	2495
1	1680	2496
1	1657	2497
1	1638	2498
1	1629	2499
1	1814	2540
1	1769	2541
1	1737	2542
1	1705	2543
1	1683	2544
1	1669	2545
1	1670	2546
1	1679	2547
1	1684	2548
1	1695	2549
1	1711	2550
1	1715	2551
1	1716	2552
1	1712	2553
1	1700	2554
1	1687	2555
1	1678	2556
1	1673	2557
1	1656	2558
1	1625	2559
1	1593	2540
1	1567	2541
1	1558	2542
1	1566	2543
1	1591	2544
1	1607	2545
1	1621	2546
1	1634	2547
1	1636	2548
1	1642	2549
1	1645	2550
1	1646	2551
1	1649	2552
1	1647	2553
1	1633	2554
1	1608	2555
1	1606	2556
1	1599	2557
1	1605	2558
1	1607	2559
1	1604	2560
1	1607	2561
1	1634	2562
1	1660	2563
1	1694	2564
1	1720	2565
1	1744	2566
1	1764	2567
1	1765	2568
1	1756	2569
1	1738	2570
1	1719	2571
1	1698	2572
1	1664	2573
1	1634	2574
1	1606	2575
1	1572	2576
1	1535	2577
1	1503	2578
1	1490	2579
1	1492	2580
1	1513	2581
1	1530	2582
1	1538	2583
1	1540	2584
1	1549	2585
1	1569	2586
1	1579	2587
1	1582	2588
1	1594	2589
1	1607	2590
1	1611	2591
1	1618	2592
1	1616	2593
1	1594	2594
1	1569	2595
1	1544	2596
1	1524	2597
1	1503	2598
1	1494	2599
1	1495	2600
1	1510	2601
1	1531	2602
1	1557	2603
1	1593	2604
1	1620	2605
1	1647	2606
1	1672	2607
1	1699	2608
1	1724	2609
1	1751	2610
1	1790	2611
1	1829	2612
1	1849	2613
1	1867	2614
1	1872	2615
1	1880	2616
1	1891	2617
1	1911	2618
1	1932	2619
1	1880	2640
1	1815	2641
1	1753	2642
1	1691	2643
1	1641	2644
1	1608	2645
1	1607	2646
1	1608	2647
1	1621	2648
1	1643	2649
1	1660	2650
1	1679	2651
1	1692	2652
1	1697	2653
1	1697	2654
1	1688	2655
1	1663	2656
1	1643	2657
1	1624	2658
1	1610	2659
1	1943	2620
1	1948	2621
1	1952	2622
1	1950	2623
1	1956	2624
1	1970	2625
1	1998	2626
1	2032	2627
1	2075	2628
1	2113	2629
1	2147	2630
1	2165	2631
1	2170	2632
1	2159	2633
1	2131	2634
1	2105	2635
1	2070	2636
1	2024	2637
1	1976	2638
1	1934	2639
1	1607	2660
1	1625	2661
1	1639	2662
1	1655	2663
1	1663	2664
1	1678	2665
1	1690	2666
1	1697	2667
1	1697	2668
1	1677	2669
1	1649	2670
1	1625	2671
1	1596	2672
1	1571	2673
1	1554	2674
1	1540	2675
1	1530	2676
1	1530	2677
1	1533	2678
1	1543	2679
1	1541	2680
1	1544	2681
1	1535	2682
1	1528	2683
1	1521	2684
1	1515	2685
1	1525	2686
1	1554	2687
1	1600	2688
1	1638	2689
1	1665	2690
1	1697	2691
1	1723	2692
1	1739	2693
1	1742	2694
1	1726	2695
1	1697	2696
1	1660	2697
1	1628	2698
1	1602	2699
1	1580	2700
1	1566	2701
1	1559	2702
1	1564	2703
1	1581	2704
1	1598	2705
1	1626	2706
1	1647	2707
1	1670	2708
1	1688	2709
1	1710	2710
1	1724	2711
1	1731	2712
1	1735	2713
1	1723	2714
1	1703	2715
1	1687	2716
1	1686	2717
1	1684	2718
1	1671	2719
1	1660	2720
1	1647	2721
1	1623	2722
1	1597	2723
1	1581	2724
1	1574	2725
1	1581	2726
1	1589	2727
1	1594	2728
1	1587	2729
1	1580	2730
1	1577	2731
1	1584	2732
1	1605	2733
1	1625	2734
1	1636	2735
1	1634	2736
1	1629	2737
1	1629	2738
1	1638	2739
1	1664	2740
1	1682	2741
1	1686	2742
1	1684	2743
1	1674	2744
1	1671	2745
1	1664	2746
1	1667	2747
1	1668	2748
1	1660	2749
1	1661	2750
1	1679	2751
1	1682	2752
1	1683	2753
1	1674	2754
1	1670	2755
1	1665	2756
1	1660	2757
1	1643	2758
1	1629	2759
1	1619	2760
1	1603	2761
1	1587	2762
1	1582	2763
1	1586	2764
1	1594	2765
1	1602	2766
1	1607	2767
1	1615	2768
1	1620	2769
1	1629	2770
1	1638	2771
1	1647	2772
1	1649	2773
1	1651	2774
1	1660	2775
1	1674	2776
1	1701	2777
1	1737	2778
1	1760	2779
1	1764	2780
1	1762	2781
1	1740	2782
1	1708	2783
1	1671	2784
1	1639	2785
1	1625	2786
1	1621	2787
1	1638	2788
1	1661	2789
1	1693	2790
1	1716	2791
1	1738	2792
1	1762	2793
1	1780	2794
1	1791	2795
1	1810	2796
1	1815	2797
1	1816	2798
1	1813	2799
1	1801	2800
1	1776	2801
1	1738	2802
1	1695	2803
1	1649	2804
1	1616	2805
1	1602	2806
1	1608	2807
1	1620	2808
1	1634	2809
1	1647	2810
1	1662	2811
1	1672	2812
1	1677	2813
1	1671	2814
1	1668	2815
1	1671	2816
1	1665	2817
1	1660	2818
1	1647	2819
1	1634	2820
1	1624	2821
1	1618	2822
1	1611	2823
1	1607	2824
1	1605	2825
1	1607	2826
1	1618	2827
1	1641	2828
1	1681	2829
1	1713	2830
1	1746	2831
1	1769	2832
1	1787	2833
1	1792	2834
1	1802	2835
1	1815	2836
1	1823	2837
1	1823	2838
1	1803	2839
1	1764	2840
1	1741	2841
1	1726	2842
1	1723	2843
1	1716	2844
1	1697	2845
1	1675	2846
1	1660	2847
1	1651	2848
1	1647	2849
1	1648	2850
1	1649	2851
1	1661	2852
1	1682	2853
1	1710	2854
1	1744	2855
1	1782	2856
1	1791	2857
1	1778	2858
1	1762	2859
1	1752	2860
1	1746	2861
1	1733	2862
1	1724	2863
1	1716	2864
1	1708	2865
1	1699	2866
1	1701	2867
1	1705	2868
1	1705	2869
1	1710	2870
1	1711	2871
1	1712	2872
1	1715	2873
1	1724	2874
1	1726	2875
1	1715	2876
1	1693	2877
1	1670	2878
1	1641	2879
1	1737	2900
1	1724	2901
1	1702	2902
1	1678	2903
1	1657	2904
1	1647	2905
1	1647	2906
1	1657	2907
1	1681	2908
1	1708	2909
1	1737	2910
1	1744	2911
1	1751	2912
1	1754	2913
1	1747	2914
1	1728	2915
1	1714	2916
1	1699	2917
1	1664	2918
1	1619	2919
1	1611	2880
1	1583	2881
1	1565	2882
1	1556	2883
1	1566	2884
1	1596	2885
1	1634	2886
1	1659	2887
1	1677	2888
1	1700	2889
1	1721	2890
1	1732	2891
1	1724	2892
1	1712	2893
1	1700	2894
1	1693	2895
1	1697	2896
1	1713	2897
1	1733	2898
1	1738	2899
1	1580	2920
1	1557	2921
1	1561	2922
1	1557	2923
1	1566	2924
1	1566	2925
1	1567	2926
1	1576	2927
1	1595	2928
1	1631	2929
1	1666	2930
1	1704	2931
1	1728	2932
1	1749	2933
1	1773	2934
1	1791	2935
1	1795	2936
1	1782	2937
1	1744	2938
1	1698	2939
1	1651	2940
1	1602	2941
1	1580	2942
1	1571	2943
1	1574	2944
1	1585	2945
1	1609	2946
1	1628	2947
1	1639	2948
1	1646	2949
1	1661	2950
1	1681	2951
1	1687	2952
1	1692	2953
1	1697	2954
1	1704	2955
1	1700	2956
1	1689	2957
1	1665	2958
1	1643	2959
1	1622	2960
1	1607	2961
1	1579	2962
1	1551	2963
1	1544	2964
1	1567	2965
1	1599	2966
1	1634	2967
1	1661	2968
1	1686	2969
1	1711	2970
1	1724	2971
1	1737	2972
1	1739	2973
1	1733	2974
1	1712	2975
1	1703	2976
1	1674	2977
1	1658	2978
1	1647	2979
1	1639	2980
1	1634	2981
1	1626	2982
1	1620	2983
1	1616	2984
1	1613	2985
1	1611	2986
1	1612	2987
1	1623	2988
1	1642	2989
1	1661	2990
1	1684	2991
1	1696	2992
1	1703	2993
1	1711	2994
1	1716	2995
1	1728	2996
1	1735	2997
1	1728	2998
1	1718	2999
1	1705	3000
1	1679	3001
1	1660	3002
1	1647	3003
1	1646	3004
1	1647	3005
1	1656	3006
1	1665	3007
1	1684	3008
1	1688	3009
1	1693	3010
1	1698	3011
1	1701	3012
1	1701	3013
1	1695	3014
1	1692	3015
1	1698	3016
1	1711	3017
1	1715	3018
1	1712	3019
1	1701	3020
1	1688	3021
1	1668	3022
1	1645	3023
1	1636	3024
1	1622	3025
1	1623	3026
1	1629	3027
1	1643	3028
1	1659	3029
1	1667	3030
1	1680	3031
1	1695	3032
1	1707	3033
1	1708	3034
1	1701	3035
1	1686	3036
1	1660	3037
1	1634	3038
1	1612	3039
1	1593	3040
1	1566	3041
1	1543	3042
1	1529	3043
1	1524	3044
1	1529	3045
1	1546	3046
1	1579	3047
1	1621	3048
1	1669	3049
1	1712	3050
1	1751	3051
1	1777	3052
1	1791	3053
1	1794	3054
1	1782	3055
1	1764	3056
1	1737	3057
1	1700	3058
1	1665	3059
1	1649	3060
1	1639	3061
1	1634	3062
1	1633	3063
1	1638	3064
1	1649	3065
1	1662	3066
1	1669	3067
1	1674	3068
1	1682	3069
1	1686	3070
1	1687	3071
1	1694	3072
1	1703	3073
1	1724	3074
1	1741	3075
1	1738	3076
1	1728	3077
1	1712	3078
1	1688	3079
1	1660	3080
1	1639	3081
1	1616	3082
1	1616	3083
1	1631	3084
1	1647	3085
1	1659	3086
1	1665	3087
1	1670	3088
1	1668	3089
1	1664	3090
1	1647	3091
1	1638	3092
1	1634	3093
1	1634	3094
1	1633	3095
1	1638	3096
1	1639	3097
1	1646	3098
1	1660	3099
1	1665	3100
1	1660	3101
1	1651	3102
1	1648	3103
1	1647	3104
1	1645	3105
1	1646	3106
1	1648	3107
1	1655	3108
1	1657	3109
1	1660	3110
1	1674	3111
1	1687	3112
1	1703	3113
1	1715	3114
1	1715	3115
1	1698	3116
1	1670	3117
1	1652	3118
1	1634	3119
1	1695	3140
1	1699	3141
1	1706	3142
1	1712	3143
1	1710	3144
1	1700	3145
1	1700	3146
1	1703	3147
1	1712	3148
1	1730	3149
1	1739	3150
1	1737	3151
1	1738	3152
1	1744	3153
1	1748	3154
1	1755	3155
1	1764	3156
1	1761	3157
1	1750	3158
1	1737	3159
1	1616	3120
1	1592	3121
1	1590	3122
1	1596	3123
1	1610	3124
1	1634	3125
1	1664	3126
1	1688	3127
1	1705	3128
1	1724	3129
1	1737	3130
1	1738	3131
1	1737	3132
1	1736	3133
1	1735	3134
1	1737	3135
1	1728	3136
1	1723	3137
1	1714	3138
1	1706	3139
1	1714	3160
1	1695	3161
1	1682	3162
1	1681	3163
1	1684	3164
1	1683	3165
1	1674	3166
1	1671	3167
1	1674	3168
1	1685	3169
1	1700	3170
1	1719	3171
1	1727	3172
1	1724	3173
1	1710	3174
1	1675	3175
1	1629	3176
1	1580	3177
1	1540	3178
1	1505	3179
1	1482	3180
1	1473	3181
1	1475	3182
1	1489	3183
1	1517	3184
1	1541	3185
1	1566	3186
1	1594	3187
1	1618	3188
1	1626	3189
1	1620	3190
1	1607	3191
1	1581	3192
1	1564	3193
1	1559	3194
1	1565	3195
1	1570	3196
1	1584	3197
1	1611	3198
1	1639	3199
1	1649	3200
1	1651	3201
1	1643	3202
1	1629	3203
1	1616	3204
1	1610	3205
1	1620	3206
1	1646	3207
1	1665	3208
1	1686	3209
1	1698	3210
1	1699	3211
1	1700	3212
1	1697	3213
1	1686	3214
1	1676	3215
1	1675	3216
1	1670	3217
1	1663	3218
1	1652	3219
1	1643	3220
1	1644	3221
1	1646	3222
1	1630	3223
1	1612	3224
1	1602	3225
1	1598	3226
1	1605	3227
1	1622	3228
1	1647	3229
1	1670	3230
1	1687	3231
1	1703	3232
1	1712	3233
1	1701	3234
1	1687	3235
1	1660	3236
1	1626	3237
1	1594	3238
1	1572	3239
1	1561	3240
1	1555	3241
1	1566	3242
1	1595	3243
1	1638	3244
1	1698	3245
1	1764	3246
1	1820	3247
1	1868	3248
1	1904	3249
1	1940	3250
1	1978	3251
1	2016	3252
1	2051	3253
1	2081	3254
1	2117	3255
1	2138	3256
1	2141	3257
1	2130	3258
1	2118	3259
1	2112	3260
1	2112	3261
1	2101	3262
1	2088	3263
1	2073	3264
1	2051	3265
1	2026	3266
1	1996	3267
1	1960	3268
1	1934	3269
1	1917	3270
1	1889	3271
1	1861	3272
1	1832	3273
1	1791	3274
1	1746	3275
1	1710	3276
1	1670	3277
1	1635	3278
1	1607	3279
1	1581	3280
1	1550	3281
1	1520	3282
1	1502	3283
1	1503	3284
1	1521	3285
1	1544	3286
1	1581	3287
1	1625	3288
1	1665	3289
1	1710	3290
1	1756	3291
1	1787	3292
1	1791	3293
1	1778	3294
1	1749	3295
1	1711	3296
1	1671	3297
1	1636	3298
1	1609	3299
1	1593	3300
1	1565	3301
1	1530	3302
1	1495	3303
1	1473	3304
1	1469	3305
1	1481	3306
1	1499	3307
1	1526	3308
1	1552	3309
1	1580	3310
1	1599	3311
1	1610	3312
1	1625	3313
1	1638	3314
1	1652	3315
1	1654	3316
1	1657	3317
1	1664	3318
1	1668	3319
1	1667	3320
1	1661	3321
1	1649	3322
1	1634	3323
1	1620	3324
1	1602	3325
1	1599	3326
1	1607	3327
1	1607	3328
1	1611	3329
1	1628	3330
1	1645	3331
1	1656	3332
1	1677	3333
1	1686	3334
1	1685	3335
1	1669	3336
1	1641	3337
1	1607	3338
1	1574	3339
1	1557	3340
1	1547	3341
1	1553	3342
1	1561	3343
1	1579	3344
1	1586	3345
1	1584	3346
1	1585	3347
1	1591	3348
1	1598	3349
1	1608	3350
1	1626	3351
1	1644	3352
1	1660	3353
1	1660	3354
1	1656	3355
1	1650	3356
1	1646	3357
1	1638	3358
1	1613	3359
1	1593	3360
1	1567	3361
1	1561	3362
1	1571	3363
1	1595	3364
1	1626	3365
1	1656	3366
1	1670	3367
1	1688	3368
1	1704	3369
1	1707	3370
1	1711	3371
1	1708	3372
1	1688	3373
1	1660	3374
1	1620	3375
1	1570	3376
1	1539	3377
1	1523	3378
1	1521	3379
1	1530	3380
1	1553	3381
1	1566	3382
1	1570	3383
1	1577	3384
1	1589	3385
1	1607	3386
1	1636	3387
1	1665	3388
1	1698	3389
1	1727	3390
1	1742	3391
1	1751	3392
1	1755	3393
1	1752	3394
1	1739	3395
1	1720	3396
1	1697	3397
1	1680	3398
1	1672	3399
1	1672	3400
1	1670	3401
1	1670	3402
1	1665	3403
1	1660	3404
1	1656	3405
1	1633	3406
1	1607	3407
1	1584	3408
1	1584	3409
1	1595	3410
1	1620	3411
1	1647	3412
1	1676	3413
1	1701	3414
1	1712	3415
1	1712	3416
1	1700	3417
1	1690	3418
1	1683	3419
1	1665	3420
1	1631	3421
1	1606	3422
1	1587	3423
1	1589	3424
1	1593	3425
1	1602	3426
1	1621	3427
1	1659	3428
1	1701	3429
1	1723	3430
1	1735	3431
1	1731	3432
1	1726	3433
1	1716	3434
1	1700	3435
1	1678	3436
1	1654	3437
1	1623	3438
1	1589	3439
1	1560	3440
1	1553	3441
1	1553	3442
1	1557	3443
1	1569	3444
1	1584	3445
1	1625	3446
1	1673	3447
1	1712	3448
1	1738	3449
1	1755	3450
1	1760	3451
1	1763	3452
1	1761	3453
1	1753	3454
1	1739	3455
1	1736	3456
1	1727	3457
1	1712	3458
1	1691	3459
1	1670	3480
1	1625	3481
1	1593	3482
1	1581	3483
1	1583	3484
1	1598	3485
1	1622	3486
1	1634	3487
1	1652	3488
1	1677	3489
1	1701	3490
1	1717	3491
1	1723	3492
1	1718	3493
1	1716	3494
1	1724	3495
1	1724	3496
1	1721	3497
1	1712	3498
1	1700	3499
1	1674	3460
1	1661	3461
1	1656	3462
1	1649	3463
1	1644	3464
1	1645	3465
1	1652	3466
1	1674	3467
1	1705	3468
1	1738	3469
1	1773	3470
1	1817	3471
1	1839	3472
1	1838	3473
1	1822	3474
1	1803	3475
1	1791	3476
1	1767	3477
1	1742	3478
1	1709	3479
1	1687	3500
1	1686	3501
1	1674	3502
1	1651	3503
1	1634	3504
1	1639	3505
1	1661	3506
1	1683	3507
1	1690	3508
1	1688	3509
1	1691	3510
1	1699	3511
1	1706	3512
1	1712	3513
1	1724	3514
1	1729	3515
1	1733	3516
1	1721	3517
1	1711	3518
1	1698	3519
1	1683	3520
1	1660	3521
1	1638	3522
1	1615	3523
1	1602	3524
1	1595	3525
1	1590	3526
1	1582	3527
1	1580	3528
1	1581	3529
1	1590	3530
1	1611	3531
1	1644	3532
1	1668	3533
1	1685	3534
1	1705	3535
1	1709	3536
1	1700	3537
1	1683	3538
1	1669	3539
1	1657	3540
1	1634	3541
1	1632	3542
1	1631	3543
1	1631	3544
1	1625	3545
1	1630	3546
1	1634	3547
1	1639	3548
1	1652	3549
1	1664	3550
1	1670	3551
1	1670	3552
1	1672	3553
1	1665	3554
1	1659	3555
1	1644	3556
1	1634	3557
1	1626	3558
1	1621	3559
1	1616	3560
1	1616	3561
1	1621	3562
1	1629	3563
1	1634	3564
1	1649	3565
1	1660	3566
1	1672	3567
1	1682	3568
1	1697	3569
1	1712	3570
1	1720	3571
1	1721	3572
1	1715	3573
1	1716	3574
1	1730	3575
1	1747	3576
1	1738	3577
1	1713	3578
1	1688	3579
1	1667	3580
1	1647	3581
1	1631	3582
1	1609	3583
1	1603	3584
1	1602	3585
1	1596	3586
1	1597	3587
1	1615	3588
1	1637	3589
1	1657	3590
1	1670	3591
1	1674	3592
1	1683	3593
1	1688	3594
1	1692	3595
1	1690	3596
1	1686	3597
1	1682	3598
1	1672	3599
1	1665	3600
1	1656	3601
1	1647	3602
1	1638	3603
1	1626	3604
1	1610	3605
1	1616	3606
1	1623	3607
1	1634	3608
1	1643	3609
1	1645	3610
1	1649	3611
1	1659	3612
1	1674	3613
1	1690	3614
1	1710	3615
1	1711	3616
1	1712	3617
1	1710	3618
1	1703	3619
1	1691	3620
1	1686	3621
1	1674	3622
1	1669	3623
1	1674	3624
1	1667	3625
1	1677	3626
1	1682	3627
1	1693	3628
1	1697	3629
1	1706	3630
1	1724	3631
1	1739	3632
1	1742	3633
1	1731	3634
1	1712	3635
1	1690	3636
1	1662	3637
1	1647	3638
1	1634	3639
1	1639	3640
1	1641	3641
1	1641	3642
1	1643	3643
1	1656	3644
1	1674	3645
1	1680	3646
1	1685	3647
1	1692	3648
1	1692	3649
1	1686	3650
1	1683	3651
1	1677	3652
1	1680	3653
1	1686	3654
1	1688	3655
1	1692	3656
1	1694	3657
1	1696	3658
1	1694	3659
1	1689	3660
1	1685	3661
1	1677	3662
1	1667	3663
1	1660	3664
1	1657	3665
1	1662	3666
1	1670	3667
1	1685	3668
1	1698	3669
1	1704	3670
1	1711	3671
1	1723	3672
1	1737	3673
1	1744	3674
1	1743	3675
1	1728	3676
1	1712	3677
1	1699	3678
1	1672	3679
1	1644	3680
1	1619	3681
1	1592	3682
1	1579	3683
1	1580	3684
1	1582	3685
1	1585	3686
1	1602	3687
1	1634	3688
1	1680	3689
1	1713	3690
1	1726	3691
1	1733	3692
1	1728	3693
1	1723	3694
1	1706	3695
1	1697	3696
1	1678	3697
1	1656	3698
1	1634	3699
1	1615	3700
1	1597	3701
1	1585	3702
1	1584	3703
1	1593	3704
1	1611	3705
1	1636	3706
1	1670	3707
1	1708	3708
1	1750	3709
1	1791	3710
1	1839	3711
1	1854	3712
1	1845	3713
1	1829	3714
1	1809	3715
1	1787	3716
1	1764	3717
1	1739	3718
1	1703	3719
1	1724	3740
1	1712	3741
1	1685	3742
1	1665	3743
1	1658	3744
1	1664	3745
1	1679	3746
1	1697	3747
1	1717	3748
1	1734	3749
1	1737	3750
1	1741	3751
1	1751	3752
1	1752	3753
1	1746	3754
1	1736	3755
1	1738	3756
1	1738	3757
1	1737	3758
1	1725	3759
1	1667	3740
1	1621	3741
1	1594	3742
1	1566	3743
1	1553	3744
1	1533	3745
1	1525	3746
1	1525	3747
1	1540	3748
1	1583	3749
1	1624	3750
1	1658	3751
1	1688	3752
1	1717	3753
1	1739	3754
1	1748	3755
1	1738	3756
1	1738	3757
1	1738	3758
1	1738	3759
1	1703	3760
1	1675	3761
1	1647	3762
1	1625	3763
1	1611	3764
1	1592	3765
1	1557	3766
1	1536	3767
1	1517	3768
1	1515	3769
1	1518	3770
1	1544	3771
1	1581	3772
1	1625	3773
1	1666	3774
1	1701	3775
1	1726	3776
1	1755	3777
1	1774	3778
1	1776	3779
1	1756	3780
1	1734	3781
1	1712	3782
1	1698	3783
1	1686	3784
1	1672	3785
1	1679	3786
1	1696	3787
1	1726	3788
1	1756	3789
1	1779	3790
1	1790	3791
1	1783	3792
1	1772	3793
1	1751	3794
1	1729	3795
1	1697	3796
1	1674	3797
1	1658	3798
1	1650	3799
1	1648	3800
1	1660	3801
1	1660	3802
1	1652	3803
1	1660	3804
1	1671	3805
1	1680	3806
1	1686	3807
1	1692	3808
1	1707	3809
1	1714	3810
1	1712	3811
1	1719	3812
1	1731	3813
1	1730	3814
1	1713	3815
1	1699	3816
1	1672	3817
1	1660	3818
1	1647	3819
1	1542	3840
1	1529	3841
1	1539	3842
1	1555	3843
1	1576	3844
1	1592	3845
1	1629	3846
1	1654	3847
1	1675	3848
1	1692	3849
1	1708	3850
1	1714	3851
1	1716	3852
1	1720	3853
1	1723	3854
1	1718	3855
1	1702	3856
1	1697	3857
1	1697	3858
1	1697	3859
1	1629	3820
1	1610	3821
1	1599	3822
1	1582	3823
1	1592	3824
1	1607	3825
1	1623	3826
1	1635	3827
1	1647	3828
1	1658	3829
1	1659	3830
1	1660	3831
1	1658	3832
1	1656	3833
1	1647	3834
1	1644	3835
1	1628	3836
1	1606	3837
1	1584	3838
1	1562	3839
1	1684	3860
1	1669	3861
1	1636	3862
1	1615	3863
1	1609	3864
1	1618	3865
1	1625	3866
1	1635	3867
1	1655	3868
1	1664	3869
1	1667	3870
1	1672	3871
1	1678	3872
1	1674	3873
1	1661	3874
1	1635	3875
1	1619	3876
1	1597	3877
1	1579	3878
1	1555	3879
1	2106	3900
1	2099	3901
1	2089	3902
1	2075	3903
1	2063	3904
1	2052	3905
1	2045	3906
1	2024	3907
1	1994	3908
1	1959	3909
1	1932	3910
1	1916	3911
1	1906	3912
1	1895	3913
1	1881	3914
1	1860	3915
1	1819	3916
1	1791	3917
1	1765	3918
1	1737	3919
1	1533	3880
1	1518	3881
1	1530	3882
1	1567	3883
1	1602	3884
1	1634	3885
1	1668	3886
1	1702	3887
1	1738	3888
1	1781	3889
1	1819	3890
1	1878	3891
1	1934	3892
1	1989	3893
1	2043	3894
1	2079	3895
1	2099	3896
1	2106	3897
1	2106	3898
1	2105	3899
1	1710	3920
1	1700	3921
1	1687	3922
1	1689	3923
1	1703	3924
1	1713	3925
1	1728	3926
1	1737	3927
1	1754	3928
1	1766	3929
1	1773	3930
1	1765	3931
1	1751	3932
1	1724	3933
1	1697	3934
1	1664	3935
1	1635	3936
1	1605	3937
1	1574	3938
1	1539	3939
1	1515	3940
1	1507	3941
1	1507	3942
1	1508	3943
1	1515	3944
1	1531	3945
1	1558	3946
1	1582	3947
1	1621	3948
1	1667	3949
1	1700	3950
1	1735	3951
1	1742	3952
1	1738	3953
1	1724	3954
1	1710	3955
1	1685	3956
1	1651	3957
1	1612	3958
1	1577	3959
1	1544	3960
1	1508	3961
1	1494	3962
1	1481	3963
1	1476	3964
1	1478	3965
1	1515	3966
1	1558	3967
1	1605	3968
1	1642	3969
1	1674	3970
1	1701	3971
1	1727	3972
1	1751	3973
1	1766	3974
1	1773	3975
1	1759	3976
1	1742	3977
1	1724	3978
1	1701	3979
1	1666	3980
1	1638	3981
1	1605	3982
1	1582	3983
1	1567	3984
1	1559	3985
1	1557	3986
1	1565	3987
1	1575	3988
1	1581	3989
1	1593	3990
1	1605	3991
1	1607	3992
1	1607	3993
1	1605	3994
1	1602	3995
1	1607	3996
1	1611	3997
1	1618	3998
1	1620	3999
1	1621	4000
1	1625	4001
1	1621	4002
1	1608	4003
1	1606	4004
1	1598	4005
1	1592	4006
1	1594	4006
1	1615	4008
1	1657	4009
1	1687	4010
1	1715	4011
1	1721	4012
1	1714	4013
1	1707	4014
1	1698	4014
1	1685	4016
1	1660	4017
1	1641	4018
1	1607	4019
1	1579	4020
1	1554	4021
1	1555	4022
1	1581	4022
1	1608	4024
1	1632	4025
1	1642	4026
1	1658	4027
1	1677	4028
1	1698	4029
1	1716	4030
1	1737	4030
1	1749	4032
1	1751	4033
1	1746	4034
1	1737	4035
1	1711	4036
1	1688	4037
1	1654	4038
1	1623	4038
1	1592	4040
1	1580	4041
1	1568	4042
1	1566	4043
1	1573	4044
1	1586	4045
1	1607	4046
1	1625	4046
1	1644	4048
1	1657	4049
1	1672	4050
1	1691	4051
1	1707	4052
1	1717	4053
1	1719	4054
1	1706	4054
1	1700	4056
1	1676	4057
1	1655	4058
1	1629	4059
1	1600	4060
1	1572	4061
1	1551	4062
1	1534	4062
1	1528	4064
1	1535	4065
1	1549	4066
1	1571	4067
1	1607	4068
1	1648	4069
1	1674	4070
1	1714	4070
1	1738	4072
1	1753	4073
1	1774	4074
1	1791	4075
1	1787	4076
1	1751	4077
1	1702	4078
1	1656	4078
1	1555	4100
1	1557	4101
1	1557	4102
1	1570	4103
1	1594	4104
1	1621	4105
1	1645	4106
1	1667	4107
1	1693	4108
1	1736	4109
1	1777	4110
1	1812	4111
1	1826	4112
1	1834	4113
1	1832	4114
1	1811	4115
1	1787	4116
1	1738	4117
1	1691	4118
1	1656	4119
1	1616	4080
1	1581	4081
1	1564	4082
1	1556	4083
1	1556	4084
1	1560	4085
1	1589	4086
1	1607	4086
1	1634	4088
1	1680	4089
1	1721	4090
1	1755	4091
1	1767	4092
1	1756	4093
1	1738	4094
1	1710	4094
1	1668	4096
1	1638	4097
1	1607	4098
1	1581	4099
1	1628	4120
1	1610	4121
1	1607	4122
1	1613	4123
1	1634	4124
1	1660	4125
1	1693	4126
1	1712	4127
1	1703	4128
1	1686	4129
1	1675	4130
1	1674	4131
1	1673	4132
1	1669	4133
1	1665	4134
1	1664	4135
1	1654	4136
1	1636	4137
1	1625	4138
1	1618	4139
1	1616	4140
1	1611	4141
1	1611	4142
1	1622	4143
1	1639	4144
1	1657	4145
1	1691	4146
1	1712	4147
1	1731	4148
1	1743	4149
1	1742	4150
1	1715	4151
1	1676	4152
1	1636	4153
1	1607	4154
1	1583	4155
1	1579	4156
1	1581	4157
1	1579	4158
1	1569	4159
1	1558	4160
1	1567	4161
1	1567	4162
1	1575	4163
1	1592	4164
1	1611	4165
1	1643	4166
1	1674	4167
1	1703	4168
1	1729	4169
1	1739	4170
1	1738	4171
1	1734	4172
1	1716	4173
1	1701	4174
1	1683	4175
1	1686	4176
1	1673	4177
1	1649	4178
1	1634	4179
1	1618	4180
1	1609	4181
1	1594	4182
1	1577	4183
1	1566	4184
1	1556	4185
1	1557	4186
1	1570	4187
1	1580	4188
1	1593	4189
1	1603	4190
1	1634	4191
1	1647	4192
1	1660	4193
1	1671	4194
1	1680	4195
1	1685	4196
1	1681	4197
1	1661	4198
1	1636	4199
1	1607	4200
1	1587	4201
1	1582	4202
1	1581	4203
1	1583	4204
1	1592	4205
1	1634	4206
1	1671	4207
1	1705	4208
1	1723	4209
1	1727	4210
1	1717	4211
1	1701	4212
1	1692	4213
1	1695	4214
1	1707	4215
1	1698	4216
1	1686	4217
1	1660	4218
1	1634	4219
1	1607	4220
1	1604	4221
1	1592	4222
1	1577	4223
1	1561	4224
1	1556	4225
1	1569	4226
1	1572	4227
1	1589	4228
1	1611	4229
1	1635	4230
1	1652	4231
1	1668	4232
1	1680	4233
1	1683	4234
1	1665	4235
1	1670	4236
1	1665	4237
1	1661	4238
1	1664	4239
1	1667	4240
1	1668	4241
1	1672	4242
1	1675	4243
1	1677	4244
1	1683	4245
1	1688	4246
1	1695	4247
1	1702	4248
1	1711	4249
1	1712	4250
1	1738	4251
1	1742	4252
1	1726	4253
1	1706	4254
1	1699	4255
1	1700	4256
1	1704	4257
1	1704	4258
1	1699	4259
1	1679	4260
1	1634	4261
1	1607	4262
1	1581	4263
1	1558	4264
1	1553	4265
1	1590	4266
1	1628	4267
1	1662	4268
1	1706	4269
1	1742	4270
1	1780	4271
1	1800	4272
1	1813	4273
1	1796	4274
1	1764	4275
1	1712	4276
1	1667	4277
1	1625	4278
1	1586	4279
1	1557	4280
1	1547	4281
1	1530	4282
1	1530	4283
1	1550	4284
1	1574	4285
1	1593	4286
1	1607	4287
1	1607	4288
1	1607	4289
1	1623	4290
1	1661	4291
1	1687	4292
1	1715	4293
1	1731	4294
1	1725	4295
1	1733	4296
1	1728	4297
1	1728	4298
1	1720	4299
1	1708	4300
1	1693	4301
1	1668	4302
1	1644	4303
1	1621	4304
1	1607	4305
1	1592	4306
1	1593	4307
1	1607	4308
1	1629	4309
1	1638	4310
1	1663	4311
1	1680	4312
1	1693	4313
1	1703	4314
1	1713	4315
1	1724	4316
1	1734	4317
1	1742	4318
1	1752	4319
1	1752	4320
1	1724	4321
1	1701	4322
1	1673	4323
1	1652	4324
1	1634	4325
1	1625	4326
1	1623	4327
1	1626	4328
1	1651	4329
1	1684	4330
1	1718	4331
1	1737	4332
1	1738	4333
1	1738	4334
1	1727	4335
1	1699	4336
1	1679	4337
1	1651	4338
1	1630	4339
1	1616	4340
1	1626	4341
1	1624	4342
1	1619	4343
1	1623	4344
1	1632	4345
1	1642	4346
1	1662	4347
1	1694	4348
1	1720	4349
1	1733	4350
1	1719	4351
1	1706	4352
1	1675	4353
1	1637	4354
1	1600	4355
1	1581	4356
1	1563	4357
1	1554	4358
1	1551	4359
1	1539	4360
1	1529	4361
1	1529	4362
1	1539	4363
1	1567	4364
1	1604	4365
1	1633	4366
1	1654	4367
1	1686	4368
1	1715	4369
1	1730	4370
1	1739	4371
1	1746	4372
1	1755	4373
1	1758	4374
1	1751	4375
1	1740	4376
1	1731	4377
1	1707	4378
1	1670	4379
1	1629	4380
1	1594	4381
1	1575	4382
1	1569	4383
1	1581	4384
1	1599	4385
1	1631	4386
1	1656	4387
1	1685	4388
1	1711	4389
1	1727	4390
1	1721	4391
1	1710	4392
1	1697	4393
1	1689	4394
1	1681	4395
1	1664	4396
1	1660	4397
1	1659	4398
1	1660	4399
1	1666	4400
1	1674	4401
1	1675	4402
1	1665	4403
1	1655	4404
1	1651	4405
1	1661	4406
1	1682	4407
1	1692	4408
1	1705	4409
1	1717	4410
1	1724	4411
1	1728	4412
1	1724	4413
1	1710	4414
1	1686	4415
1	1674	4416
1	1661	4417
1	1660	4418
1	1660	4419
1	1661	4420
1	1659	4421
1	1647	4422
1	1632	4423
1	1616	4424
1	1616	4425
1	1632	4426
1	1649	4427
1	1672	4428
1	1685	4429
1	1688	4430
1	1698	4431
1	1708	4432
1	1712	4433
1	1714	4434
1	1719	4435
1	1721	4436
1	1715	4437
1	1695	4438
1	1667	4439
1	1656	4440
1	1643	4441
1	1636	4442
1	1634	4443
1	1633	4444
1	1638	4445
1	1664	4446
1	1688	4447
1	1712	4448
1	1751	4449
1	1783	4450
1	1803	4451
1	1817	4452
1	1827	4453
1	1839	4454
1	1841	4455
1	1826	4456
1	1803	4457
1	1770	4458
1	1734	4459
1	1703	4460
1	1674	4461
1	1641	4462
1	1615	4463
1	1596	4464
1	1581	4465
1	1580	4466
1	1596	4467
1	1620	4468
1	1637	4469
1	1647	4470
1	1657	4471
1	1659	4472
1	1659	4473
1	1660	4474
1	1674	4475
1	1698	4476
1	1715	4477
1	1726	4478
1	1730	4479
1	1556	4500
1	1553	4501
1	1554	4502
1	1563	4503
1	1580	4504
1	1595	4505
1	1631	4506
1	1660	4507
1	1684	4508
1	1712	4509
1	1747	4510
1	1769	4511
1	1772	4512
1	1766	4513
1	1751	4514
1	1724	4515
1	1679	4516
1	1652	4517
1	1620	4518
1	1589	4519
1	1712	4480
1	1701	4481
1	1698	4482
1	1697	4483
1	1690	4484
1	1676	4485
1	1647	4486
1	1629	4487
1	1607	4488
1	1589	4489
1	1569	4490
1	1561	4491
1	1555	4492
1	1553	4493
1	1558	4494
1	1566	4495
1	1575	4496
1	1581	4497
1	1575	4498
1	1563	4499
1	1675	4540
1	1713	4541
1	1751	4542
1	1787	4543
1	1832	4544
1	1893	4545
1	1969	4546
1	2012	4547
1	2064	4548
1	2104	4549
1	2129	4550
1	2157	4551
1	2189	4552
1	2222	4553
1	2247	4554
1	2248	4555
1	2233	4556
1	2201	4557
1	2157	4558
1	2104	4559
1	1562	4520
1	1553	4521
1	1538	4522
1	1520	4523
1	1503	4524
1	1489	4525
1	1489	4526
1	1499	4527
1	1526	4528
1	1556	4529
1	1580	4530
1	1580	4531
1	1566	4532
1	1556	4533
1	1547	4534
1	1538	4535
1	1542	4536
1	1560	4537
1	1585	4538
1	1622	4539
1	2047	4560
1	1977	4561
1	1937	4562
1	1895	4563
1	1857	4564
1	1836	4565
1	1832	4566
1	1827	4567
1	1822	4568
1	1816	4569
1	1799	4570
1	1789	4571
1	1774	4572
1	1753	4573
1	1728	4574
1	1709	4575
1	1670	4576
1	1634	4577
1	1589	4578
1	1554	4579
1	1574	4600
1	1563	4601
1	1551	4602
1	1547	4603
1	1552	4604
1	1562	4605
1	1575	4606
1	1586	4607
1	1607	4608
1	1625	4609
1	1638	4610
1	1659	4611
1	1665	4612
1	1665	4613
1	1659	4614
1	1652	4615
1	1647	4616
1	1634	4617
1	1616	4618
1	1584	4619
1	1533	4580
1	1529	4581
1	1523	4582
1	1528	4583
1	1539	4584
1	1544	4585
1	1543	4586
1	1545	4587
1	1559	4588
1	1584	4589
1	1611	4590
1	1642	4591
1	1656	4592
1	1663	4593
1	1661	4594
1	1652	4595
1	1639	4596
1	1620	4597
1	1603	4598
1	1587	4599
1	1561	4620
1	1551	4621
1	1554	4622
1	1566	4623
1	1577	4624
1	1584	4625
1	1590	4626
1	1587	4627
1	1583	4628
1	1594	4629
1	1613	4630
1	1643	4631
1	1677	4632
1	1701	4633
1	1717	4634
1	1737	4635
1	1741	4636
1	1739	4637
1	1734	4638
1	1712	4639
1	1677	4640
1	1625	4641
1	1579	4642
1	1531	4643
1	1503	4644
1	1484	4645
1	1492	4646
1	1514	4647
1	1537	4648
1	1568	4649
1	1599	4650
1	1625	4651
1	1647	4652
1	1671	4653
1	1686	4654
1	1695	4655
1	1713	4656
1	1721	4657
1	1723	4658
1	1712	4659
1	1514	4680
1	1514	4681
1	1529	4682
1	1548	4683
1	1566	4684
1	1577	4685
1	1580	4686
1	1571	4687
1	1563	4688
1	1566	4689
1	1575	4690
1	1589	4691
1	1602	4692
1	1616	4693
1	1639	4694
1	1660	4695
1	1664	4696
1	1672	4697
1	1688	4698
1	1701	4699
1	1711	4700
1	1715	4701
1	1712	4702
1	1710	4703
1	1701	4704
1	1688	4705
1	1662	4706
1	1646	4707
1	1631	4708
1	1612	4709
1	1603	4710
1	1592	4711
1	1586	4712
1	1584	4713
1	1589	4714
1	1597	4715
1	1616	4716
1	1634	4717
1	1647	4718
1	1656	4719
1	1689	4660
1	1660	4661
1	1634	4662
1	1616	4663
1	1607	4664
1	1609	4665
1	1612	4666
1	1621	4667
1	1639	4668
1	1672	4669
1	1700	4670
1	1719	4671
1	1724	4672
1	1710	4673
1	1680	4674
1	1643	4675
1	1611	4676
1	1579	4677
1	1543	4678
1	1527	4679
1	1665	4720
1	1682	4721
1	1694	4722
1	1703	4723
1	1712	4724
1	1712	4725
1	1696	4726
1	1674	4727
1	1651	4728
1	1633	4729
1	1620	4730
1	1620	4731
1	1625	4732
1	1622	4733
1	1616	4734
1	1609	4735
1	1598	4736
1	1592	4737
1	1594	4738
1	1602	4739
1	1607	4740
1	1607	4741
1	1611	4742
1	1616	4743
1	1619	4744
1	1626	4745
1	1648	4746
1	1679	4747
1	1715	4748
1	1753	4749
1	1791	4750
1	1818	4751
1	1819	4752
1	1809	4753
1	1782	4754
1	1743	4755
1	1681	4756
1	1644	4757
1	1611	4758
1	1601	4759
1	1596	4760
1	1603	4761
1	1600	4762
1	1594	4763
1	1589	4764
1	1590	4765
1	1604	4766
1	1629	4767
1	1657	4768
1	1683	4769
1	1705	4770
1	1718	4771
1	1728	4772
1	1737	4773
1	1738	4774
1	1738	4775
1	1737	4776
1	1724	4777
1	1701	4778
1	1656	4779
1	1612	4780
1	1587	4781
1	1571	4782
1	1566	4783
1	1574	4784
1	1593	4785
1	1613	4786
1	1634	4787
1	1650	4788
1	1665	4789
1	1683	4790
1	1699	4791
1	1706	4792
1	1710	4793
1	1708	4794
1	1701	4795
1	1696	4796
1	1686	4797
1	1670	4798
1	1649	4799
1	1634	4800
1	1594	4801
1	1566	4802
1	1537	4803
1	1518	4804
1	1517	4805
1	1539	4806
1	1569	4807
1	1594	4808
1	1620	4809
1	1640	4810
1	1668	4811
1	1693	4812
1	1713	4813
1	1724	4814
1	1716	4815
1	1697	4816
1	1679	4817
1	1656	4818
1	1638	4819
1	1625	4820
1	1613	4821
1	1598	4822
1	1577	4823
1	1566	4824
1	1554	4825
1	1539	4826
1	1541	4827
1	1561	4828
1	1592	4829
1	1626	4830
1	1660	4831
1	1697	4832
1	1723	4833
1	1738	4834
1	1755	4835
1	1764	4836
1	1756	4837
1	1749	4838
1	1733	4839
1	1705	4840
1	1663	4841
1	1620	4842
1	1581	4843
1	1563	4844
1	1554	4845
1	1554	4846
1	1566	4847
1	1580	4848
1	1599	4849
1	1620	4850
1	1637	4851
1	1642	4852
1	1645	4853
1	1654	4854
1	1659	4855
1	1660	4856
1	1659	4857
1	1654	4858
1	1649	4859
1	1640	4860
1	1620	4861
1	1616	4862
1	1611	4863
1	1607	4864
1	1606	4865
1	1619	4866
1	1641	4867
1	1674	4868
1	1706	4869
1	1733	4870
1	1741	4871
1	1738	4872
1	1726	4873
1	1710	4874
1	1698	4875
1	1687	4876
1	1688	4877
1	1686	4878
1	1676	4879
1	1647	4880
1	1607	4881
1	1567	4882
1	1542	4883
1	1536	4884
1	1533	4885
1	1534	4886
1	1539	4887
1	1553	4888
1	1572	4889
1	1598	4890
1	1623	4891
1	1647	4892
1	1677	4893
1	1701	4894
1	1712	4895
1	1724	4896
1	1724	4897
1	1712	4898
1	1689	4899
1	1667	4900
1	1641	4901
1	1621	4902
1	1610	4903
1	1607	4904
1	1611	4905
1	1608	4906
1	1621	4907
1	1646	4908
1	1672	4909
1	1692	4910
1	1710	4911
1	1708	4912
1	1692	4913
1	1678	4914
1	1670	4915
1	1678	4916
1	1683	4917
1	1676	4918
1	1664	4919
1	1642	4920
1	1622	4921
1	1606	4922
1	1607	4923
1	1619	4924
1	1653	4925
1	1691	4926
1	1712	4927
1	1712	4928
1	1707	4929
1	1699	4930
1	1686	4931
1	1671	4932
1	1660	4933
1	1650	4934
1	1644	4935
1	1633	4936
1	1608	4937
1	1586	4938
1	1564	4939
1	1552	4940
1	1537	4941
1	1533	4942
1	1535	4943
1	1544	4944
1	1553	4945
1	1561	4946
1	1582	4947
1	1611	4948
1	1652	4949
1	1697	4950
1	1734	4951
1	1752	4952
1	1770	4953
1	1773	4954
1	1764	4955
1	1755	4956
1	1746	4957
1	1737	4958
1	1728	4959
1	1708	4980
1	1682	4981
1	1643	4982
1	1616	4983
1	1607	4984
1	1607	4985
1	1615	4986
1	1634	4987
1	1659	4988
1	1677	4989
1	1697	4990
1	1722	4991
1	1746	4992
1	1764	4993
1	1766	4994
1	1757	4995
1	1751	4996
1	1738	4997
1	1721	4998
1	1709	4999
1	1716	4960
1	1708	4961
1	1686	4962
1	1664	4963
1	1654	4964
1	1658	4965
1	1682	4966
1	1698	4967
1	1700	4968
1	1685	4969
1	1662	4970
1	1652	4971
1	1647	4972
1	1660	4973
1	1679	4974
1	1699	4975
1	1725	4976
1	1737	4977
1	1734	4978
1	1723	4979
1	1695	5000
1	1675	5001
1	1636	5002
1	1594	5003
1	1557	5004
1	1541	5005
1	1538	5006
1	1548	5007
1	1569	5008
1	1598	5009
1	1629	5010
1	1660	5011
1	1687	5012
1	1708	5013
1	1712	5014
1	1710	5015
1	1699	5016
1	1661	5017
1	1633	5018
1	1600	5019
1	1576	5020
1	1561	5021
1	1555	5022
1	1554	5023
1	1567	5024
1	1581	5025
1	1605	5026
1	1629	5027
1	1652	5028
1	1669	5029
1	1686	5030
1	1706	5031
1	1730	5032
1	1748	5033
1	1744	5034
1	1743	5035
1	1730	5036
1	1710	5037
1	1678	5038
1	1642	5039
1	1615	5040
1	1595	5041
1	1574	5042
1	1576	5043
1	1587	5044
1	1600	5045
1	1615	5046
1	1631	5047
1	1644	5048
1	1660	5049
1	1676	5050
1	1687	5051
1	1688	5052
1	1679	5053
1	1665	5054
1	1660	5055
1	1649	5056
1	1638	5057
1	1641	5058
1	1636	5059
1	1625	5060
1	1609	5061
1	1598	5062
1	1592	5063
1	1592	5064
1	1607	5065
1	1632	5066
1	1662	5067
1	1695	5068
1	1716	5069
1	1737	5070
1	1754	5071
1	1757	5072
1	1753	5073
1	1742	5074
1	1736	5075
1	1731	5076
1	1726	5077
1	1731	5078
1	1733	5079
1	1738	5080
1	1728	5081
1	1709	5082
1	1695	5083
1	1685	5084
1	1674	5085
1	1669	5086
1	1664	5087
1	1665	5088
1	1674	5089
1	1686	5090
1	1710	5091
1	1718	5092
1	1718	5093
1	1717	5094
1	1728	5095
1	1742	5096
1	1752	5097
1	1760	5098
1	1764	5099
1	1767	5100
1	1769	5101
1	1764	5102
1	1760	5103
1	1751	5104
1	1737	5105
1	1721	5106
1	1709	5107
1	1700	5108
1	1694	5109
1	1686	5110
1	1675	5111
1	1655	5112
1	1630	5113
1	1606	5114
1	1579	5115
1	1557	5116
1	1540	5117
1	1545	5118
1	1567	5119
1	1592	5120
1	1615	5121
1	1634	5122
1	1646	5123
1	1646	5124
1	1634	5125
1	1618	5126
1	1606	5127
1	1594	5128
1	1579	5129
1	1567	5130
1	1555	5131
1	1550	5132
1	1544	5133
1	1544	5134
1	1554	5135
1	1556	5136
1	1554	5137
1	1561	5138
1	1566	5139
1	1589	5140
1	1607	5141
1	1631	5142
1	1647	5143
1	1658	5144
1	1664	5145
1	1664	5146
1	1647	5147
1	1639	5148
1	1634	5149
1	1629	5150
1	1637	5151
1	1652	5152
1	1671	5153
1	1699	5154
1	1720	5155
1	1719	5156
1	1709	5157
1	1692	5158
1	1672	5159
1	1560	5180
1	1541	5181
1	1526	5182
1	1521	5183
1	1529	5184
1	1550	5185
1	1578	5186
1	1611	5187
1	1648	5188
1	1682	5189
1	1708	5190
1	1736	5191
1	1757	5192
1	1782	5193
1	1811	5194
1	1832	5195
1	1867	5196
1	1903	5197
1	1947	5198
1	1980	5199
1	1647	5160
1	1611	5161
1	1572	5162
1	1559	5163
1	1560	5164
1	1566	5165
1	1581	5166
1	1597	5167
1	1613	5168
1	1634	5169
1	1658	5170
1	1679	5171
1	1698	5172
1	1706	5173
1	1701	5174
1	1687	5175
1	1669	5176
1	1638	5177
1	1607	5178
1	1581	5179
1	2012	5200
1	2043	5201
1	2078	5202
1	2105	5203
1	2122	5204
1	2138	5205
1	2156	5206
1	2156	5207
1	2157	5208
1	2149	5209
1	2132	5210
1	2109	5211
1	2084	5212
1	2043	5213
1	1989	5214
1	1936	5215
1	1886	5216
1	1841	5217
1	1803	5218
1	1772	5219
1	1742	5220
1	1710	5221
1	1667	5222
1	1625	5223
1	1581	5224
1	1536	5225
1	1524	5226
1	1522	5227
1	1526	5228
1	1533	5229
1	1544	5230
1	1556	5231
1	1571	5232
1	1582	5233
1	1592	5234
1	1594	5235
1	1595	5236
1	1607	5237
1	1616	5238
1	1620	5239
1	1620	5240
1	1619	5241
1	1628	5242
1	1631	5243
1	1634	5244
1	1644	5245
1	1656	5246
1	1668	5247
1	1669	5248
1	1655	5249
1	1643	5250
1	1638	5251
1	1631	5252
1	1629	5253
1	1625	5254
1	1611	5255
1	1607	5256
1	1603	5257
1	1603	5258
1	1598	5259
1	1604	5260
1	1594	5261
1	1561	5262
1	1530	5263
1	1505	5264
1	1491	5265
1	1485	5266
1	1487	5267
1	1502	5268
1	1526	5269
1	1570	5270
1	1623	5271
1	1671	5272
1	1712	5273
1	1738	5274
1	1736	5275
1	1725	5276
1	1707	5277
1	1680	5278
1	1643	5279
1	1581	5300
1	1579	5301
1	1569	5302
1	1572	5303
1	1589	5304
1	1607	5305
1	1634	5306
1	1659	5307
1	1683	5308
1	1697	5309
1	1698	5310
1	1701	5311
1	1700	5312
1	1705	5313
1	1713	5314
1	1718	5315
1	1724	5316
1	1717	5317
1	1705	5318
1	1682	5319
1	1608	5280
1	1579	5281
1	1552	5282
1	1539	5283
1	1541	5284
1	1557	5285
1	1581	5286
1	1602	5287
1	1626	5288
1	1650	5289
1	1667	5290
1	1682	5291
1	1683	5292
1	1673	5293
1	1659	5294
1	1649	5295
1	1643	5296
1	1631	5297
1	1613	5298
1	1597	5299
1	1659	5320
1	1638	5321
1	1610	5322
1	1582	5323
1	1567	5324
1	1557	5325
1	1560	5326
1	1577	5327
1	1597	5328
1	1623	5329
1	1637	5330
1	1644	5331
1	1647	5332
1	1652	5333
1	1638	5334
1	1644	5335
1	1644	5336
1	1648	5337
1	1649	5338
1	1646	5339
1	1638	5340
1	1633	5341
1	1618	5342
1	1615	5343
1	1613	5344
1	1611	5345
1	1607	5346
1	1582	5347
1	1572	5348
1	1591	5349
1	1625	5350
1	1661	5351
1	1699	5352
1	1739	5353
1	1765	5354
1	1782	5355
1	1787	5356
1	1773	5357
1	1762	5358
1	1740	5359
1	1713	5360
1	1686	5361
1	1652	5362
1	1631	5363
1	1609	5364
1	1598	5365
1	1597	5366
1	1611	5367
1	1631	5368
1	1647	5369
1	1656	5370
1	1658	5371
1	1641	5372
1	1625	5373
1	1616	5374
1	1607	5375
1	1610	5376
1	1619	5377
1	1626	5378
1	1634	5379
1	1636	5380
1	1635	5381
1	1634	5382
1	1634	5383
1	1638	5384
1	1644	5385
1	1647	5386
1	1641	5387
1	1639	5388
1	1646	5389
1	1660	5390
1	1685	5391
1	1703	5392
1	1712	5393
1	1716	5394
1	1718	5395
1	1712	5396
1	1706	5397
1	1690	5398
1	1668	5399
1	1634	5400
1	1607	5401
1	1581	5402
1	1579	5403
1	1587	5404
1	1607	5405
1	1632	5406
1	1645	5407
1	1668	5408
1	1696	5409
1	1715	5410
1	1730	5411
1	1736	5412
1	1737	5413
1	1740	5414
1	1747	5415
1	1749	5416
1	1729	5417
1	1712	5418
1	1697	5419
1	1679	5420
1	1660	5421
1	1628	5422
1	1595	5423
1	1584	5424
1	1582	5425
1	1583	5426
1	1586	5427
1	1612	5428
1	1656	5429
1	1688	5430
1	1713	5431
1	1729	5432
1	1743	5433
1	1746	5434
1	1738	5435
1	1716	5436
1	1695	5437
1	1677	5438
1	1634	5439
1	1615	5440
1	1593	5441
1	1579	5442
1	1565	5443
1	1557	5444
1	1567	5445
1	1595	5446
1	1621	5447
1	1644	5448
1	1662	5449
1	1679	5450
1	1688	5451
1	1686	5452
1	1681	5453
1	1672	5454
1	1669	5455
1	1669	5456
1	1675	5457
1	1682	5458
1	1676	5459
1	1657	5460
1	1634	5461
1	1620	5462
1	1618	5463
1	1616	5464
1	1607	5465
1	1607	5466
1	1594	5467
1	1583	5468
1	1589	5469
1	1605	5470
1	1625	5471
1	1645	5472
1	1670	5473
1	1690	5474
1	1694	5475
1	1675	5476
1	1636	5477
1	1605	5478
1	1580	5479
1	1557	5480
1	1553	5481
1	1550	5482
1	1555	5483
1	1571	5484
1	1581	5485
1	1586	5486
1	1600	5487
1	1621	5488
1	1652	5489
1	1686	5490
1	1707	5491
1	1716	5492
1	1734	5493
1	1737	5494
1	1723	5495
1	1712	5496
1	1692	5497
1	1665	5498
1	1638	5499
1	1613	5500
1	1584	5501
1	1561	5502
1	1556	5503
1	1560	5504
1	1575	5505
1	1600	5506
1	1626	5507
1	1656	5508
1	1671	5509
1	1680	5510
1	1687	5511
1	1685	5512
1	1679	5513
1	1677	5514
1	1682	5515
1	1690	5516
1	1698	5517
1	1686	5518
1	1656	5519
1	1625	5520
1	1611	5521
1	1609	5522
1	1620	5523
1	1634	5524
1	1651	5525
1	1662	5526
1	1675	5527
1	1681	5528
1	1686	5529
1	1690	5530
1	1698	5531
1	1701	5532
1	1708	5533
1	1704	5534
1	1701	5535
1	1700	5536
1	1687	5537
1	1656	5538
1	1620	5539
1	1584	5540
1	1563	5541
1	1561	5542
1	1559	5543
1	1568	5544
1	1580	5545
1	1594	5546
1	1616	5547
1	1643	5548
1	1668	5549
1	1695	5550
1	1728	5551
1	1746	5552
1	1759	5553
1	1764	5554
1	1762	5555
1	1761	5556
1	1737	5557
1	1700	5558
1	1660	5559
1	1629	5560
1	1607	5561
1	1599	5562
1	1602	5563
1	1608	5564
1	1625	5565
1	1652	5566
1	1677	5567
1	1715	5568
1	1744	5569
1	1760	5570
1	1770	5571
1	1765	5572
1	1754	5573
1	1738	5574
1	1715	5575
1	1686	5576
1	1646	5577
1	1607	5578
1	1575	5579
1	1549	5580
1	1526	5581
1	1502	5582
1	1496	5583
1	1503	5584
1	1531	5585
1	1580	5586
1	1623	5587
1	1671	5588
1	1724	5589
1	1773	5590
1	1817	5591
1	1844	5592
1	1855	5593
1	1850	5594
1	1841	5595
1	1821	5596
1	1782	5597
1	1746	5598
1	1704	5599
1	1666	5600
1	1643	5601
1	1616	5602
1	1591	5603
1	1572	5604
1	1568	5605
1	1574	5606
1	1581	5607
1	1607	5608
1	1647	5609
1	1693	5610
1	1738	5611
1	1764	5612
1	1787	5613
1	1795	5614
1	1793	5615
1	1785	5616
1	1757	5617
1	1731	5618
1	1703	5619
1	1811	5640
1	1777	5641
1	1719	5642
1	1674	5643
1	1639	5644
1	1619	5645
1	1622	5646
1	1634	5647
1	1655	5648
1	1679	5649
1	1697	5650
1	1708	5651
1	1716	5652
1	1724	5653
1	1721	5654
1	1707	5655
1	1690	5656
1	1668	5657
1	1660	5658
1	1655	5659
1	1674	5620
1	1642	5621
1	1611	5622
1	1589	5623
1	1581	5624
1	1573	5625
1	1567	5626
1	1567	5627
1	1567	5628
1	1564	5629
1	1568	5630
1	1580	5631
1	1598	5632
1	1623	5633
1	1659	5634
1	1703	5635
1	1737	5636
1	1764	5637
1	1788	5638
1	1809	5639
1	1657	5680
1	1657	5681
1	1655	5682
1	1656	5683
1	1663	5684
1	1670	5685
1	1665	5686
1	1661	5687
1	1664	5688
1	1670	5689
1	1683	5690
1	1690	5691
1	1690	5692
1	1681	5693
1	1660	5694
1	1644	5695
1	1642	5696
1	1643	5697
1	1643	5698
1	1639	5699
1	1647	5660
1	1643	5661
1	1634	5662
1	1622	5663
1	1612	5664
1	1619	5665
1	1633	5666
1	1641	5667
1	1655	5668
1	1671	5669
1	1688	5670
1	1694	5671
1	1686	5672
1	1686	5673
1	1683	5674
1	1675	5675
1	1670	5676
1	1661	5677
1	1654	5678
1	1656	5679
1	1634	5700
1	1623	5701
1	1607	5702
1	1605	5703
1	1596	5704
1	1584	5705
1	1581	5706
1	1587	5707
1	1616	5708
1	1655	5709
1	1694	5710
1	1724	5711
1	1738	5712
1	1751	5713
1	1757	5714
1	1763	5715
1	1754	5716
1	1736	5717
1	1716	5718
1	1707	5719
1	1695	5720
1	1683	5721
1	1660	5722
1	1642	5723
1	1634	5724
1	1625	5725
1	1629	5726
1	1642	5727
1	1661	5728
1	1686	5729
1	1710	5730
1	1729	5731
1	1760	5732
1	1785	5733
1	1800	5734
1	1803	5735
1	1791	5736
1	1778	5737
1	1763	5738
1	1751	5739
1	1746	5740
1	1724	5741
1	1705	5742
1	1686	5743
1	1661	5744
1	1651	5745
1	1648	5746
1	1658	5747
1	1669	5748
1	1672	5749
1	1679	5750
1	1688	5751
1	1712	5752
1	1725	5753
1	1736	5754
1	1748	5755
1	1754	5756
1	1753	5757
1	1744	5758
1	1737	5759
1	1721	5760
1	1708	5761
1	1688	5762
1	1681	5763
1	1673	5764
1	1656	5765
1	1636	5766
1	1618	5767
1	1602	5768
1	1594	5769
1	1586	5770
1	1581	5771
1	1580	5772
1	1569	5773
1	1557	5774
1	1553	5775
1	1551	5776
1	1543	5777
1	1548	5778
1	1561	5779
1	1569	5780
1	1576	5781
1	1577	5782
1	1572	5783
1	1565	5784
1	1554	5785
1	1553	5786
1	1575	5787
1	1617	5788
1	1665	5789
1	1712	5790
1	1751	5791
1	1764	5792
1	1778	5793
1	1790	5794
1	1794	5795
1	1814	5796
1	1809	5797
1	1786	5798
1	1749	5799
1	1697	5800
1	1638	5801
1	1589	5802
1	1553	5803
1	1531	5804
1	1533	5805
1	1544	5806
1	1556	5807
1	1581	5808
1	1611	5809
1	1636	5810
1	1660	5811
1	1676	5812
1	1688	5813
1	1695	5814
1	1696	5815
1	1692	5816
1	1681	5817
1	1659	5818
1	1632	5819
1	2143	5840
1	2127	5841
1	2115	5842
1	2092	5843
1	2084	5844
1	2100	5845
1	2111	5846
1	2112	5847
1	2106	5848
1	2100	5849
1	2087	5850
1	2077	5851
1	2057	5852
1	2044	5853
1	2026	5854
1	1998	5855
1	1953	5856
1	1903	5857
1	1854	5858
1	1814	5859
1	1595	5820
1	1551	5821
1	1501	5822
1	1454	5823
1	1423	5824
1	1402	5825
1	1409	5826
1	1437	5827
1	1484	5828
1	1540	5829
1	1615	5830
1	1705	5831
1	1793	5832
1	1868	5833
1	1924	5834
1	1979	5835
1	2030	5836
1	2078	5837
1	2118	5838
1	2143	5839
1	1768	5860
1	1724	5861
1	1679	5862
1	1634	5863
1	1608	5864
1	1604	5865
1	1612	5866
1	1618	5867
1	1623	5868
1	1633	5869
1	1644	5870
1	1656	5871
1	1658	5872
1	1656	5873
1	1659	5874
1	1660	5875
1	1658	5876
1	1651	5877
1	1639	5878
1	1631	5879
1	1607	5880
1	1586	5881
1	1572	5882
1	1562	5883
1	1560	5884
1	1563	5885
1	1562	5886
1	1570	5887
1	1593	5888
1	1612	5889
1	1634	5890
1	1654	5891
1	1674	5892
1	1677	5893
1	1663	5894
1	1652	5895
1	1641	5896
1	1626	5897
1	1611	5898
1	1593	5899
1	1563	5900
1	1544	5901
1	1530	5902
1	1528	5903
1	1531	5904
1	1549	5905
1	1581	5906
1	1620	5907
1	1654	5908
1	1674	5909
1	1685	5910
1	1688	5911
1	1690	5912
1	1703	5913
1	1712	5914
1	1719	5915
1	1719	5916
1	1703	5917
1	1670	5918
1	1638	5919
1	1631	5940
1	1593	5941
1	1556	5942
1	1538	5943
1	1529	5944
1	1528	5945
1	1531	5946
1	1529	5947
1	1541	5948
1	1565	5949
1	1607	5950
1	1647	5951
1	1683	5952
1	1710	5953
1	1728	5954
1	1742	5955
1	1738	5956
1	1713	5957
1	1693	5958
1	1661	5959
1	1607	5920
1	1571	5921
1	1537	5922
1	1516	5923
1	1502	5924
1	1501	5925
1	1510	5926
1	1536	5927
1	1571	5928
1	1607	5929
1	1647	5930
1	1695	5931
1	1736	5932
1	1759	5933
1	1769	5934
1	1767	5935
1	1751	5936
1	1724	5937
1	1698	5938
1	1670	5939
1	1634	5960
1	1611	5961
1	1607	5962
1	1607	5963
1	1616	5964
1	1634	5965
1	1656	5966
1	1679	5967
1	1693	5968
1	1700	5969
1	1695	5970
1	1680	5971
1	1662	5972
1	1669	5973
1	1686	5974
1	1693	5975
1	1688	5976
1	1661	5977
1	1631	5978
1	1607	5979
1	1596	5980
1	1593	5981
1	1589	5982
1	1590	5983
1	1607	5984
1	1634	5985
1	1648	5986
1	1639	5987
1	1635	5988
1	1652	5989
1	1671	5990
1	1701	5991
1	1731	5992
1	1761	5993
1	1786	5994
1	1791	5995
1	1779	5996
1	1760	5997
1	1741	5998
1	1712	5999
1	1674	6000
1	1634	6001
1	1599	6002
1	1591	6003
1	1589	6004
1	1590	6005
1	1595	6006
1	1598	6007
1	1608	6008
1	1625	6009
1	1638	6010
1	1659	6011
1	1674	6012
1	1691	6013
1	1698	6014
1	1691	6015
1	1677	6016
1	1657	6017
1	1658	6018
1	1665	6019
1	1679	6020
1	1692	6021
1	1688	6022
1	1674	6023
1	1661	6024
1	1634	6025
1	1610	6026
1	1590	6027
1	1581	6028
1	1589	6029
1	1610	6030
1	1636	6031
1	1659	6032
1	1681	6033
1	1697	6034
1	1701	6035
1	1701	6036
1	1711	6037
1	1716	6038
1	1713	6039
1	1699	6040
1	1687	6041
1	1688	6042
1	1699	6043
1	1712	6044
1	1733	6045
1	1755	6046
1	1760	6047
1	1755	6048
1	1748	6049
1	1734	6050
1	1723	6051
1	1709	6052
1	1703	6053
1	1698	6054
1	1693	6055
1	1684	6056
1	1675	6057
1	1662	6058
1	1651	6059
1	1620	6080
1	1592	6081
1	1554	6082
1	1516	6083
1	1494	6084
1	1487	6085
1	1490	6086
1	1510	6087
1	1553	6088
1	1594	6089
1	1636	6090
1	1688	6091
1	1738	6092
1	1773	6093
1	1786	6094
1	1788	6095
1	1772	6096
1	1747	6097
1	1712	6098
1	1677	6099
1	1645	6100
1	1620	6101
1	1603	6102
1	1582	6103
1	1571	6104
1	1562	6105
1	1565	6106
1	1575	6107
1	1605	6108
1	1636	6109
1	1660	6110
1	1678	6111
1	1686	6112
1	1686	6113
1	1685	6114
1	1674	6115
1	1660	6116
1	1647	6117
1	1634	6118
1	1618	6119
1	1646	6060
1	1631	6061
1	1608	6062
1	1611	6063
1	1623	6064
1	1628	6065
1	1635	6066
1	1647	6067
1	1675	6068
1	1711	6069
1	1751	6070
1	1782	6071
1	1811	6072
1	1820	6073
1	1816	6074
1	1790	6075
1	1756	6076
1	1718	6077
1	1683	6078
1	1647	6079
1	1602	6120
1	1600	6121
1	1605	6122
1	1626	6123
1	1656	6124
1	1672	6125
1	1677	6126
1	1677	6127
1	1692	6128
1	1712	6129
1	1718	6130
1	1729	6131
1	1736	6132
1	1723	6133
1	1699	6134
1	1678	6135
1	1658	6136
1	1634	6137
1	1625	6138
1	1618	6139
1	1608	6140
1	1595	6141
1	1594	6142
1	1589	6143
1	1595	6144
1	1611	6145
1	1634	6146
1	1660	6147
1	1703	6148
1	1744	6149
1	1778	6150
1	1792	6151
1	1782	6152
1	1760	6153
1	1738	6154
1	1717	6155
1	1704	6156
1	1685	6157
1	1665	6158
1	1648	6159
1	1626	6160
1	1606	6161
1	1589	6162
1	1581	6163
1	1584	6164
1	1593	6165
1	1607	6166
1	1607	6167
1	1610	6168
1	1608	6169
1	1617	6170
1	1636	6171
1	1662	6172
1	1694	6173
1	1715	6174
1	1731	6175
1	1737	6176
1	1741	6177
1	1742	6178
1	1727	6179
1	1686	6180
1	1639	6181
1	1597	6182
1	1581	6183
1	1584	6184
1	1607	6185
1	1628	6186
1	1647	6187
1	1674	6188
1	1704	6189
1	1720	6190
1	1731	6191
1	1733	6192
1	1723	6193
1	1709	6194
1	1697	6195
1	1674	6196
1	1639	6197
1	1613	6198
1	1594	6199
1	1577	6200
1	1562	6201
1	1546	6202
1	1552	6203
1	1580	6204
1	1619	6205
1	1654	6206
1	1674	6207
1	1694	6208
1	1717	6209
1	1738	6210
1	1755	6211
1	1765	6212
1	1782	6213
1	1796	6214
1	1800	6215
1	1788	6216
1	1775	6217
1	1760	6218
1	1738	6219
1	1714	6220
1	1704	6221
1	1690	6222
1	1674	6223
1	1657	6224
1	1642	6225
1	1634	6226
1	1644	6227
1	1660	6228
1	1679	6229
1	1689	6230
1	1697	6231
1	1699	6232
1	1698	6233
1	1699	6234
1	1697	6235
1	1686	6236
1	1686	6237
1	1688	6238
1	1691	6239
1	1681	6240
1	1660	6241
1	1632	6242
1	1618	6243
1	1616	6244
1	1620	6245
1	1630	6246
1	1641	6247
1	1657	6248
1	1670	6249
1	1674	6250
1	1675	6251
1	1675	6252
1	1671	6253
1	1665	6254
1	1663	6255
1	1667	6256
1	1665	6257
1	1658	6258
1	1646	6259
1	1643	6260
1	1647	6261
1	1649	6262
1	1647	6263
1	1645	6264
1	1647	6265
1	1649	6266
1	1655	6267
1	1671	6268
1	1697	6269
1	1715	6270
1	1724	6271
1	1720	6272
1	1721	6273
1	1712	6274
1	1694	6275
1	1683	6276
1	1662	6277
1	1647	6278
1	1635	6279
1	1621	6280
1	1607	6281
1	1602	6282
1	1610	6283
1	1634	6284
1	1660	6285
1	1686	6286
1	1698	6287
1	1721	6288
1	1739	6289
1	1760	6290
1	1782	6291
1	1790	6292
1	1780	6293
1	1764	6294
1	1738	6295
1	1712	6296
1	1688	6297
1	1663	6298
1	1637	6299
1	1613	6300
1	1607	6301
1	1611	6302
1	1619	6303
1	1610	6304
1	1607	6305
1	1609	6306
1	1620	6307
1	1636	6308
1	1661	6309
1	1699	6310
1	1744	6311
1	1781	6312
1	1796	6313
1	1795	6314
1	1789	6315
1	1769	6316
1	1734	6317
1	1705	6318
1	1677	6319
1	1657	6320
1	1641	6321
1	1625	6322
1	1621	6323
1	1634	6324
1	1643	6325
1	1664	6326
1	1676	6327
1	1685	6328
1	1686	6329
1	1688	6330
1	1699	6331
1	1719	6332
1	1746	6333
1	1778	6334
1	1791	6335
1	1789	6336
1	1766	6337
1	1741	6338
1	1712	6339
1	1684	6340
1	1652	6341
1	1634	6342
1	1622	6343
1	1618	6344
1	1611	6345
1	1625	6346
1	1647	6347
1	1681	6348
1	1718	6349
1	1757	6350
1	1793	6351
1	1818	6352
1	1826	6353
1	1821	6354
1	1816	6355
1	1811	6356
1	1795	6357
1	1769	6358
1	1733	6359
1	1694	6360
1	1654	6361
1	1608	6362
1	1581	6363
1	1568	6364
1	1564	6365
1	1577	6366
1	1597	6367
1	1633	6368
1	1666	6369
1	1704	6370
1	1737	6371
1	1749	6372
1	1752	6373
1	1752	6374
1	1749	6375
1	1739	6376
1	1726	6377
1	1716	6378
1	1706	6379
1	1684	6400
1	1647	6401
1	1610	6402
1	1582	6403
1	1572	6404
1	1579	6405
1	1594	6406
1	1607	6407
1	1615	6408
1	1634	6409
1	1652	6410
1	1665	6411
1	1671	6412
1	1665	6413
1	1660	6414
1	1657	6415
1	1639	6416
1	1607	6417
1	1570	6418
1	1540	6419
1	1700	6400
1	1689	6401
1	1664	6402
1	1645	6403
1	1626	6404
1	1619	6405
1	1616	6406
1	1619	6407
1	1626	6408
1	1642	6409
1	1662	6410
1	1685	6411
1	1694	6412
1	1705	6413
1	1710	6414
1	1703	6415
1	1705	6416
1	1708	6417
1	1705	6418
1	1702	6419
1	1525	6420
1	1517	6421
1	1504	6422
1	1503	6423
1	1508	6424
1	1529	6425
1	1556	6426
1	1587	6427
1	1610	6428
1	1632	6429
1	1639	6430
1	1646	6431
1	1647	6432
1	1647	6433
1	1644	6434
1	1643	6435
1	1647	6436
1	1644	6437
1	1637	6438
1	1626	6439
1	1618	6440
1	1611	6441
1	1625	6442
1	1643	6443
1	1675	6444
1	1707	6445
1	1734	6446
1	1769	6447
1	1818	6448
1	1868	6449
1	1919	6450
1	1961	6451
1	1989	6452
1	2024	6453
1	2056	6454
1	2081	6455
1	2096	6456
1	2096	6457
1	2084	6458
1	2076	6459
1	1706	6480
1	1670	6481
1	1629	6482
1	1594	6483
1	1562	6484
1	1541	6485
1	1533	6486
1	1521	6487
1	1507	6488
1	1502	6489
1	1503	6490
1	1516	6491
1	1529	6492
1	1533	6493
1	1536	6494
1	1541	6495
1	1546	6496
1	1546	6497
1	1548	6498
1	1546	6499
1	2068	6460
1	2061	6461
1	2051	6462
1	2029	6463
1	2010	6464
1	1989	6465
1	1973	6466
1	1958	6467
1	1958	6468
1	1959	6469
1	1957	6470
1	1958	6471
1	1948	6472
1	1922	6473
1	1899	6474
1	1871	6475
1	1838	6476
1	1792	6477
1	1757	6478
1	1728	6479
1	1551	6500
1	1556	6501
1	1557	6502
1	1557	6503
1	1561	6504
1	1566	6505
1	1568	6506
1	1557	6507
1	1560	6508
1	1575	6509
1	1607	6510
1	1646	6511
1	1676	6512
1	1709	6513
1	1728	6514
1	1738	6515
1	1738	6516
1	1727	6517
1	1712	6518
1	1694	6519
1	1671	6520
1	1647	6521
1	1623	6522
1	1597	6523
1	1580	6524
1	1564	6525
1	1566	6526
1	1584	6527
1	1607	6528
1	1634	6529
1	1656	6530
1	1671	6531
1	1675	6532
1	1674	6533
1	1675	6534
1	1686	6535
1	1686	6536
1	1675	6537
1	1660	6538
1	1650	6539
1	1656	6540
1	1652	6541
1	1628	6542
1	1602	6543
1	1579	6544
1	1572	6545
1	1584	6546
1	1598	6547
1	1616	6548
1	1634	6549
1	1652	6550
1	1668	6551
1	1685	6552
1	1683	6553
1	1674	6554
1	1670	6555
1	1669	6556
1	1661	6557
1	1660	6558
1	1647	6559
1	1628	6560
1	1609	6561
1	1593	6562
1	1580	6563
1	1570	6564
1	1566	6565
1	1561	6566
1	1561	6567
1	1565	6568
1	1569	6569
1	1574	6570
1	1581	6571
1	1581	6572
1	1584	6573
1	1595	6574
1	1611	6575
1	1625	6576
1	1621	6577
1	1602	6578
1	1583	6579
1	1568	6580
1	1554	6581
1	1545	6582
1	1545	6583
1	1550	6584
1	1561	6585
1	1576	6586
1	1587	6587
1	1598	6588
1	1613	6589
1	1633	6590
1	1656	6591
1	1680	6592
1	1700	6593
1	1716	6594
1	1723	6595
1	1724	6596
1	1718	6597
1	1713	6598
1	1701	6599
1	1682	6600
1	1662	6601
1	1647	6602
1	1637	6603
1	1647	6604
1	1672	6605
1	1703	6606
1	1715	6607
1	1716	6608
1	1715	6609
1	1713	6610
1	1715	6611
1	1716	6612
1	1708	6613
1	1688	6614
1	1674	6615
1	1669	6616
1	1661	6617
1	1652	6618
1	1629	6619
1	1594	6620
1	1564	6621
1	1553	6622
1	1551	6623
1	1561	6624
1	1570	6625
1	1582	6626
1	1607	6627
1	1634	6628
1	1657	6629
1	1673	6630
1	1695	6631
1	1712	6632
1	1718	6633
1	1717	6634
1	1712	6635
1	1698	6636
1	1688	6637
1	1679	6638
1	1672	6639
1	1665	6640
1	1648	6641
1	1633	6642
1	1621	6643
1	1613	6644
1	1610	6645
1	1618	6646
1	1618	6647
1	1630	6648
1	1650	6649
1	1681	6650
1	1712	6651
1	1725	6652
1	1719	6653
1	1708	6654
1	1693	6655
1	1686	6656
1	1677	6657
1	1665	6658
1	1660	6659
1	1646	6660
1	1620	6661
1	1577	6662
1	1551	6663
1	1539	6664
1	1542	6665
1	1553	6666
1	1572	6667
1	1598	6668
1	1629	6669
1	1663	6670
1	1696	6671
1	1717	6672
1	1728	6673
1	1736	6674
1	1740	6675
1	1746	6676
1	1733	6677
1	1712	6678
1	1678	6679
1	1737	6700
1	1701	6701
1	1671	6702
1	1646	6703
1	1626	6704
1	1608	6705
1	1605	6706
1	1602	6707
1	1608	6708
1	1628	6709
1	1663	6710
1	1709	6711
1	1738	6712
1	1750	6713
1	1742	6714
1	1728	6715
1	1708	6716
1	1686	6717
1	1658	6718
1	1629	6719
1	1644	6680
1	1621	6681
1	1602	6682
1	1586	6683
1	1580	6684
1	1581	6685
1	1596	6686
1	1613	6687
1	1634	6688
1	1656	6689
1	1672	6690
1	1690	6691
1	1711	6692
1	1729	6693
1	1753	6694
1	1782	6695
1	1800	6696
1	1817	6697
1	1796	6698
1	1767	6699
1	1602	6720
1	1579	6721
1	1564	6722
1	1561	6723
1	1555	6724
1	1554	6725
1	1568	6726
1	1593	6727
1	1621	6728
1	1648	6729
1	1670	6730
1	1682	6731
1	1682	6732
1	1677	6733
1	1677	6734
1	1670	6735
1	1660	6736
1	1651	6737
1	1657	6738
1	1660	6739
1	1660	6740
1	1652	6741
1	1652	6742
1	1639	6743
1	1629	6744
1	1624	6745
1	1634	6746
1	1652	6747
1	1668	6748
1	1694	6749
1	1727	6750
1	1751	6751
1	1752	6752
1	1762	6753
1	1759	6754
1	1746	6755
1	1734	6756
1	1712	6757
1	1689	6758
1	1665	6759
1	1638	6760
1	1597	6761
1	1551	6762
1	1513	6763
1	1482	6764
1	1467	6765
1	1469	6766
1	1464	6767
1	1469	6768
1	1482	6769
1	1512	6770
1	1556	6771
1	1596	6772
1	1631	6773
1	1664	6774
1	1697	6775
1	1722	6776
1	1737	6777
1	1727	6778
1	1710	6779
1	1675	6780
1	1636	6781
1	1611	6782
1	1602	6783
1	1594	6784
1	1590	6785
1	1581	6786
1	1567	6787
1	1567	6788
1	1571	6789
1	1589	6790
1	1608	6791
1	1628	6792
1	1638	6793
1	1649	6794
1	1659	6795
1	1665	6796
1	1677	6797
1	1698	6798
1	1716	6799
1	1724	6800
1	1717	6801
1	1704	6802
1	1686	6803
1	1662	6804
1	1648	6805
1	1643	6806
1	1644	6807
1	1655	6808
1	1680	6809
1	1701	6810
1	1713	6811
1	1712	6812
1	1711	6813
1	1712	6814
1	1717	6815
1	1723	6816
1	1720	6817
1	1718	6818
1	1715	6819
1	1708	6820
1	1693	6821
1	1670	6822
1	1655	6823
1	1635	6824
1	1633	6825
1	1634	6826
1	1644	6827
1	1656	6828
1	1670	6829
1	1686	6830
1	1691	6831
1	1690	6832
1	1690	6833
1	1689	6834
1	1695	6835
1	1703	6836
1	1718	6837
1	1737	6838
1	1738	6839
1	1724	6840
1	1710	6841
1	1701	6842
1	1698	6843
1	1686	6844
1	1670	6845
1	1651	6846
1	1634	6847
1	1634	6848
1	1645	6849
1	1659	6850
1	1673	6851
1	1692	6852
1	1710	6853
1	1711	6854
1	1710	6855
1	1707	6856
1	1688	6857
1	1679	6858
1	1679	6859
1	1682	6860
1	1686	6861
1	1683	6862
1	1674	6863
1	1665	6864
1	1660	6865
1	1662	6866
1	1669	6867
1	1670	6868
1	1676	6869
1	1685	6870
1	1697	6871
1	1710	6872
1	1722	6873
1	1731	6874
1	1737	6875
1	1739	6876
1	1726	6877
1	1710	6878
1	1693	6879
1	1674	6880
1	1647	6881
1	1634	6882
1	1644	6883
1	1661	6884
1	1676	6885
1	1684	6886
1	1672	6887
1	1657	6888
1	1652	6889
1	1660	6890
1	1674	6891
1	1681	6892
1	1690	6893
1	1701	6894
1	1711	6895
1	1715	6896
1	1721	6897
1	1725	6898
1	1721	6899
1	1710	6900
1	1699	6901
1	1685	6902
1	1676	6903
1	1674	6904
1	1673	6905
1	1680	6906
1	1683	6907
1	1686	6908
1	1693	6909
1	1704	6910
1	1712	6911
1	1728	6912
1	1738	6913
1	1752	6914
1	1754	6915
1	1739	6916
1	1707	6917
1	1670	6918
1	1636	6919
1	1607	6920
1	1583	6921
1	1567	6922
1	1559	6923
1	1566	6924
1	1556	6925
1	1557	6926
1	1575	6927
1	1606	6928
1	1642	6929
1	1677	6930
1	1712	6931
1	1741	6932
1	1751	6933
1	1753	6934
1	1746	6935
1	1733	6936
1	1715	6937
1	1706	6938
1	1697	6939
1	1683	6940
1	1661	6941
1	1639	6942
1	1613	6943
1	1593	6944
1	1581	6945
1	1581	6946
1	1593	6947
1	1607	6948
1	1628	6949
1	1648	6950
1	1668	6951
1	1682	6952
1	1691	6953
1	1701	6954
1	1712	6955
1	1723	6956
1	1738	6957
1	1744	6958
1	1751	6959
1	1751	6960
1	1750	6961
1	1746	6962
1	1743	6963
1	1734	6964
1	1709	6965
1	1686	6966
1	1665	6967
1	1661	6968
1	1680	6969
1	1701	6970
1	1727	6971
1	1762	6972
1	1791	6973
1	1821	6974
1	1821	6975
1	1791	6976
1	1754	6977
1	1716	6978
1	1686	6979
1	1670	6980
1	1660	6981
1	1638	6982
1	1617	6983
1	1602	6984
1	1603	6985
1	1625	6986
1	1651	6987
1	1674	6988
1	1692	6989
1	1701	6990
1	1697	6991
1	1683	6992
1	1685	6993
1	1700	6994
1	1721	6995
1	1741	6996
1	1760	6997
1	1773	6998
1	1779	6999
1	1773	7000
1	1759	7001
1	1730	7002
1	1688	7003
1	1643	7004
1	1594	7005
1	1559	7006
1	1533	7007
1	1533	7008
1	1551	7009
1	1581	7010
1	1611	7011
1	1634	7012
1	1661	7013
1	1683	7014
1	1694	7015
1	1698	7016
1	1688	7017
1	1673	7018
1	1652	7019
1	1625	7020
1	1585	7021
1	1549	7022
1	1523	7023
1	1510	7024
1	1503	7025
1	1501	7026
1	1503	7027
1	1518	7028
1	1535	7029
1	1555	7030
1	1584	7031
1	1621	7032
1	1661	7033
1	1701	7034
1	1725	7035
1	1735	7036
1	1725	7037
1	1710	7038
1	1693	7039
1	1675	7040
1	1649	7041
1	1641	7042
1	1623	7043
1	1594	7044
1	1564	7045
1	1553	7046
1	1542	7047
1	1548	7048
1	1565	7049
1	1590	7050
1	1621	7051
1	1646	7052
1	1674	7053
1	1691	7054
1	1700	7055
1	1691	7056
1	1673	7057
1	1652	7058
1	1625	7059
1	1598	7060
1	1575	7061
1	1555	7062
1	1548	7063
1	1553	7064
1	1576	7065
1	1615	7066
1	1661	7067
1	1714	7068
1	1777	7069
1	1855	7070
1	1926	7071
1	2003	7072
1	2084	7073
1	2155	7074
1	2210	7075
1	2253	7076
1	2276	7077
1	2290	7078
1	2291	7079
1	2283	7080
1	2259	7081
1	2231	7082
1	2193	7083
1	2150	7084
1	2109	7085
1	2079	7086
1	2054	7087
1	2025	7088
1	1997	7089
1	1971	7090
1	1944	7091
1	1909	7092
1	1870	7093
1	1824	7094
1	1779	7095
1	1738	7096
1	1692	7097
1	1649	7098
1	1616	7099
1	1595	7100
1	1578	7101
1	1553	7102
1	1523	7103
1	1513	7104
1	1521	7105
1	1549	7106
1	1584	7107
1	1622	7108
1	1646	7109
1	1661	7110
1	1673	7111
1	1669	7112
1	1662	7113
1	1659	7114
1	1660	7115
1	1661	7116
1	1660	7117
1	1654	7118
1	1634	7119
1	1607	7120
1	1577	7121
1	1539	7122
1	1510	7123
1	1485	7124
1	1472	7125
1	1462	7126
1	1464	7127
1	1477	7128
1	1504	7129
1	1549	7130
1	1589	7131
1	1639	7132
1	1688	7133
1	1723	7134
1	1764	7135
1	1790	7136
1	1785	7137
1	1760	7138
1	1718	7139
1	1672	7140
1	1634	7141
1	1601	7142
1	1575	7143
1	1555	7144
1	1543	7145
1	1543	7146
1	1543	7147
1	1555	7148
1	1579	7149
1	1608	7150
1	1638	7151
1	1660	7152
1	1671	7153
1	1680	7154
1	1688	7155
1	1695	7156
1	1688	7157
1	1686	7158
1	1674	7159
1	1661	7160
1	1660	7161
1	1656	7162
1	1649	7163
1	1639	7164
1	1626	7165
1	1610	7166
1	1598	7167
1	1599	7168
1	1606	7169
1	1605	7170
1	1598	7171
1	1599	7172
1	1625	7173
1	1649	7174
1	1670	7175
1	1683	7176
1	1675	7177
1	1651	7178
1	1629	7179
1	1594	7180
1	1564	7181
1	1544	7182
1	1537	7183
1	1533	7184
1	1530	7185
1	1525	7186
1	1535	7187
1	1548	7188
1	1565	7189
1	1598	7190
1	1641	7191
1	1686	7192
1	1728	7193
1	1768	7194
1	1801	7195
1	1811	7196
1	1799	7197
1	1777	7198
1	1751	7199
1	1725	7200
1	1689	7201
1	1655	7202
1	1631	7203
1	1608	7204
1	1591	7205
1	1580	7206
1	1571	7207
1	1579	7208
1	1598	7209
1	1620	7210
1	1634	7211
1	1651	7212
1	1665	7213
1	1686	7214
1	1706	7215
1	1712	7216
1	1710	7217
1	1711	7218
1	1705	7219
1	1699	7220
1	1699	7221
1	1686	7222
1	1662	7223
1	1643	7224
1	1607	7225
1	1600	7226
1	1607	7227
1	1620	7228
1	1629	7229
1	1629	7230
1	1631	7231
1	1637	7232
1	1651	7233
1	1664	7234
1	1669	7235
1	1667	7236
1	1665	7237
1	1665	7238
1	1660	7239
1	1657	7240
1	1654	7241
1	1660	7242
1	1661	7243
1	1660	7244
1	1664	7245
1	1675	7246
1	1684	7247
1	1697	7248
1	1711	7249
1	1712	7250
1	1713	7251
1	1715	7252
1	1718	7253
1	1724	7254
1	1739	7255
1	1755	7256
1	1757	7257
1	1751	7258
1	1737	7259
1	1716	7260
1	1696	7261
1	1661	7262
1	1624	7263
1	1584	7264
1	1555	7265
1	1548	7266
1	1544	7267
1	1557	7268
1	1581	7269
1	1605	7270
1	1634	7271
1	1657	7272
1	1677	7273
1	1688	7274
1	1712	7275
1	1735	7276
1	1727	7277
1	1716	7278
1	1711	7279
1	1707	7280
1	1706	7281
1	1692	7282
1	1682	7283
1	1682	7284
1	1697	7285
1	1706	7286
1	1712	7287
1	1719	7288
1	1717	7289
1	1710	7290
1	1700	7291
1	1692	7292
1	1692	7293
1	1697	7294
1	1696	7295
1	1680	7296
1	1647	7297
1	1626	7298
1	1618	7299
1	1610	7300
1	1602	7301
1	1595	7302
1	1602	7303
1	1610	7304
1	1633	7305
1	1647	7306
1	1638	7307
1	1629	7308
1	1623	7309
1	1618	7310
1	1634	7311
1	1664	7312
1	1699	7313
1	1726	7314
1	1746	7315
1	1756	7316
1	1750	7317
1	1737	7318
1	1728	7319
1	1724	7320
1	1723	7321
1	1712	7322
1	1700	7323
1	1686	7324
1	1664	7325
1	1638	7326
1	1618	7327
1	1598	7328
1	1569	7329
1	1564	7330
1	1566	7331
1	1584	7332
1	1608	7333
1	1634	7334
1	1661	7335
1	1679	7336
1	1683	7337
1	1677	7338
1	1670	7339
1	1659	7340
1	1643	7341
1	1625	7342
1	1608	7343
1	1603	7344
1	1594	7345
1	1605	7346
1	1619	7347
1	1643	7348
1	1684	7349
1	1723	7350
1	1746	7351
1	1751	7352
1	1746	7353
1	1736	7354
1	1715	7355
1	1699	7356
1	1677	7357
1	1643	7358
1	1611	7359
1	1593	7360
1	1593	7361
1	1603	7362
1	1608	7363
1	1621	7364
1	1646	7365
1	1689	7366
1	1728	7367
1	1757	7368
1	1769	7369
1	1775	7370
1	1786	7371
1	1787	7372
1	1778	7373
1	1765	7374
1	1751	7375
1	1740	7376
1	1751	7377
1	1764	7378
1	1762	7379
1	1687	7400
1	1685	7401
1	1680	7402
1	1682	7403
1	1686	7404
1	1686	7405
1	1679	7406
1	1679	7407
1	1686	7408
1	1691	7409
1	1704	7410
1	1718	7411
1	1719	7412
1	1720	7413
1	1712	7414
1	1692	7415
1	1671	7416
1	1634	7417
1	1606	7418
1	1598	7419
1	1757	7380
1	1744	7381
1	1714	7382
1	1682	7383
1	1651	7384
1	1631	7385
1	1618	7386
1	1594	7387
1	1586	7388
1	1582	7389
1	1585	7390
1	1602	7391
1	1621	7392
1	1643	7393
1	1660	7394
1	1678	7395
1	1691	7396
1	1700	7397
1	1701	7398
1	1698	7399
1	1612	7420
1	1630	7421
1	1631	7422
1	1634	7423
1	1634	7424
1	1634	7425
1	1626	7426
1	1620	7427
1	1618	7428
1	1613	7429
1	1611	7430
1	1629	7431
1	1648	7432
1	1672	7433
1	1697	7434
1	1722	7435
1	1746	7436
1	1760	7437
1	1763	7438
1	1749	7439
1	1726	7440
1	1703	7441
1	1677	7442
1	1662	7443
1	1658	7444
1	1658	7445
1	1676	7446
1	1691	7447
1	1704	7448
1	1715	7449
1	1733	7450
1	1742	7451
1	1749	7452
1	1749	7453
1	1742	7454
1	1737	7455
1	1724	7456
1	1712	7457
1	1730	7458
1	1759	7459
1	1767	7460
1	1751	7461
1	1710	7462
1	1665	7463
1	1633	7464
1	1620	7465
1	1620	7466
1	1623	7467
1	1634	7468
1	1643	7469
1	1657	7470
1	1682	7471
1	1706	7472
1	1736	7473
1	1753	7474
1	1764	7475
1	1789	7476
1	1799	7477
1	1791	7478
1	1764	7479
1	1687	7500
1	1653	7501
1	1632	7502
1	1612	7503
1	1607	7504
1	1605	7505
1	1611	7506
1	1619	7507
1	1639	7508
1	1659	7509
1	1665	7510
1	1682	7511
1	1701	7512
1	1715	7513
1	1729	7514
1	1738	7515
1	1739	7516
1	1727	7517
1	1703	7518
1	1680	7519
1	1741	7480
1	1706	7481
1	1669	7482
1	1644	7483
1	1628	7484
1	1624	7485
1	1636	7486
1	1656	7487
1	1678	7488
1	1706	7489
1	1728	7490
1	1757	7491
1	1775	7492
1	1791	7493
1	1788	7494
1	1778	7495
1	1765	7496
1	1751	7497
1	1729	7498
1	1712	7499
1	1701	7540
1	1691	7541
1	1685	7542
1	1685	7543
1	1685	7544
1	1683	7545
1	1669	7546
1	1664	7547
1	1674	7548
1	1691	7549
1	1706	7550
1	1723	7551
1	1736	7552
1	1749	7553
1	1760	7554
1	1762	7555
1	1757	7556
1	1754	7557
1	1751	7558
1	1741	7559
1	1656	7520
1	1642	7521
1	1623	7522
1	1610	7523
1	1622	7524
1	1620	7525
1	1616	7526
1	1615	7527
1	1631	7528
1	1660	7529
1	1706	7530
1	1744	7531
1	1760	7532
1	1760	7533
1	1752	7534
1	1743	7535
1	1743	7536
1	1738	7537
1	1724	7538
1	1710	7539
1	1728	7560
1	1706	7561
1	1686	7562
1	1669	7563
1	1649	7564
1	1644	7565
1	1656	7566
1	1670	7567
1	1686	7568
1	1711	7569
1	1746	7570
1	1789	7571
1	1817	7572
1	1827	7573
1	1821	7574
1	1808	7575
1	1788	7576
1	1782	7577
1	1769	7578
1	1751	7579
1	1724	7580
1	1712	7581
1	1695	7582
1	1669	7583
1	1659	7584
1	1647	7585
1	1647	7586
1	1660	7587
1	1698	7588
1	1739	7589
1	1776	7590
1	1803	7591
1	1825	7592
1	1838	7593
1	1835	7594
1	1827	7595
1	1823	7596
1	1790	7597
1	1742	7598
1	1700	7599
1	1665	7600
1	1638	7601
1	1613	7602
1	1590	7603
1	1580	7604
1	1577	7605
1	1580	7606
1	1594	7607
1	1610	7608
1	1634	7609
1	1661	7610
1	1700	7611
1	1722	7612
1	1731	7613
1	1725	7614
1	1712	7615
1	1705	7616
1	1700	7617
1	1692	7618
1	1664	7619
1	1621	7620
1	1572	7621
1	1546	7622
1	1539	7623
1	1553	7624
1	1577	7625
1	1607	7626
1	1634	7627
1	1656	7628
1	1684	7629
1	1712	7630
1	1730	7631
1	1744	7632
1	1767	7633
1	1791	7634
1	1809	7635
1	1793	7636
1	1778	7637
1	1762	7638
1	1741	7639
1	1716	7640
1	1688	7641
1	1672	7642
1	1647	7643
1	1634	7644
1	1629	7645
1	1629	7646
1	1634	7647
1	1638	7648
1	1656	7649
1	1686	7650
1	1707	7651
1	1723	7652
1	1727	7653
1	1728	7654
1	1724	7655
1	1722	7656
1	1712	7657
1	1699	7658
1	1686	7659
1	1766	7680
1	1784	7681
1	1795	7682
1	1796	7683
1	1793	7684
1	1791	7685
1	1802	7686
1	1822	7687
1	1848	7688
1	1877	7689
1	1914	7690
1	1966	7691
1	2026	7692
1	2081	7693
1	2137	7694
1	2179	7695
1	2196	7696
1	2210	7697
1	2217	7698
1	2212	7699
1	1677	7660
1	1664	7661
1	1647	7662
1	1635	7663
1	1628	7664
1	1621	7665
1	1607	7666
1	1594	7667
1	1580	7668
1	1566	7669
1	1556	7670
1	1554	7671
1	1556	7672
1	1569	7673
1	1592	7674
1	1626	7675
1	1661	7676
1	1695	7677
1	1715	7678
1	1738	7679
1	2197	7700
1	2179	7701
1	2149	7702
1	2119	7703
1	2084	7704
1	2040	7705
1	2000	7706
1	1968	7707
1	1944	7708
1	1932	7709
1	1921	7710
1	1897	7711
1	1880	7712
1	1857	7713
1	1834	7714
1	1819	7715
1	1814	7716
1	1793	7717
1	1773	7718
1	1742	7719
1	1643	7740
1	1609	7741
1	1582	7742
1	1563	7743
1	1555	7744
1	1557	7745
1	1574	7746
1	1598	7747
1	1625	7748
1	1647	7749
1	1661	7750
1	1674	7751
1	1684	7752
1	1683	7753
1	1683	7754
1	1686	7755
1	1685	7756
1	1677	7757
1	1665	7758
1	1647	7759
1	1711	7720
1	1672	7721
1	1634	7722
1	1609	7723
1	1587	7724
1	1581	7725
1	1580	7726
1	1584	7727
1	1598	7728
1	1607	7729
1	1613	7730
1	1620	7731
1	1634	7732
1	1647	7733
1	1670	7734
1	1693	7735
1	1699	7736
1	1696	7737
1	1682	7738
1	1662	7739
1	1629	7760
1	1608	7761
1	1587	7762
1	1572	7763
1	1555	7764
1	1542	7765
1	1552	7766
1	1570	7767
1	1598	7768
1	1631	7769
1	1660	7770
1	1679	7771
1	1700	7772
1	1737	7773
1	1776	7774
1	1812	7775
1	1818	7776
1	1808	7777
1	1780	7778
1	1751	7779
1	1715	7780
1	1684	7781
1	1640	7782
1	1607	7783
1	1579	7784
1	1548	7785
1	1527	7786
1	1526	7787
1	1536	7788
1	1554	7789
1	1581	7790
1	1616	7791
1	1644	7792
1	1664	7793
1	1683	7794
1	1694	7795
1	1706	7796
1	1714	7797
1	1712	7798
1	1706	7799
1	1701	7800
1	1688	7801
1	1683	7802
1	1679	7803
1	1669	7804
1	1654	7805
1	1641	7806
1	1629	7807
1	1620	7808
1	1625	7809
1	1644	7810
1	1661	7811
1	1672	7812
1	1683	7813
1	1683	7814
1	1683	7815
1	1686	7816
1	1693	7817
1	1698	7818
1	1692	7819
1	1661	7840
1	1638	7841
1	1625	7842
1	1634	7843
1	1643	7844
1	1654	7845
1	1649	7846
1	1650	7847
1	1658	7848
1	1668	7849
1	1687	7850
1	1706	7851
1	1710	7852
1	1711	7853
1	1719	7854
1	1726	7855
1	1730	7856
1	1726	7857
1	1716	7858
1	1701	7859
1	1682	7820
1	1660	7821
1	1639	7822
1	1613	7823
1	1606	7824
1	1582	7825
1	1577	7826
1	1583	7827
1	1594	7828
1	1607	7829
1	1629	7830
1	1656	7831
1	1684	7832
1	1711	7833
1	1739	7834
1	1760	7835
1	1753	7836
1	1742	7837
1	1720	7838
1	1686	7839
1	1683	7860
1	1652	7861
1	1636	7862
1	1629	7863
1	1621	7864
1	1618	7865
1	1620	7866
1	1629	7867
1	1646	7868
1	1667	7869
1	1695	7870
1	1721	7871
1	1744	7872
1	1761	7873
1	1764	7874
1	1754	7875
1	1737	7876
1	1722	7877
1	1704	7878
1	1682	7879
1	1668	7880
1	1664	7881
1	1657	7882
1	1657	7883
1	1646	7884
1	1634	7885
1	1634	7886
1	1643	7887
1	1658	7888
1	1686	7889
1	1719	7890
1	1738	7891
1	1755	7892
1	1762	7893
1	1769	7894
1	1770	7895
1	1755	7896
1	1728	7897
1	1706	7898
1	1688	7899
1	1668	7900
1	1643	7901
1	1619	7902
1	1604	7903
1	1602	7904
1	1599	7905
1	1603	7906
1	1628	7907
1	1659	7908
1	1683	7909
1	1709	7910
1	1738	7911
1	1765	7912
1	1791	7913
1	1801	7914
1	1808	7915
1	1800	7916
1	1800	7917
1	1801	7918
1	1796	7919
1	1790	7920
1	1769	7921
1	1751	7922
1	1718	7923
1	1682	7924
1	1647	7925
1	1620	7926
1	1603	7927
1	1594	7928
1	1597	7929
1	1603	7930
1	1616	7931
1	1634	7932
1	1657	7933
1	1681	7934
1	1700	7935
1	1700	7936
1	1700	7937
1	1688	7938
1	1667	7939
1	1649	7940
1	1620	7941
1	1599	7942
1	1589	7943
1	1584	7944
1	1587	7945
1	1585	7946
1	1582	7947
1	1592	7948
1	1613	7949
1	1652	7950
1	1688	7951
1	1731	7952
1	1765	7953
1	1790	7954
1	1791	7955
1	1780	7956
1	1764	7957
1	1751	7958
1	1738	7959
1	1712	7960
1	1683	7961
1	1661	7962
1	1641	7963
1	1615	7964
1	1599	7965
1	1589	7966
1	1602	7967
1	1620	7968
1	1626	7969
1	1634	7970
1	1647	7971
1	1655	7972
1	1660	7973
1	1667	7974
1	1673	7975
1	1681	7976
1	1695	7977
1	1709	7978
1	1701	7979
1	1679	7980
1	1648	7981
1	1620	7982
1	1596	7983
1	1581	7984
1	1581	7985
1	1597	7986
1	1619	7987
1	1645	7988
1	1672	7989
1	1701	7990
1	1731	7991
1	1740	7992
1	1747	7993
1	1751	7994
1	1747	7995
1	1733	7996
1	1719	7997
1	1708	7998
1	1699	7999
1	1693	8000
1	1688	8000
1	1674	8002
1	1648	8003
1	1636	8004
1	1638	8005
1	1654	8006
1	1683	8007
1	1705	8008
1	1718	8009
1	1736	8010
1	1742	8011
1	1752	8012
1	1754	8013
1	1744	8013
1	1727	8015
1	1713	8016
1	1691	8016
1	1661	8018
1	1631	8019
1	1673	8040
1	1643	8041
1	1628	8042
1	1617	8043
1	1607	8044
1	1598	8045
1	1607	8045
1	1629	8047
1	1652	8048
1	1672	8048
1	1686	8050
1	1699	8051
1	1724	8052
1	1752	8053
1	1783	8054
1	1815	8055
1	1836	8056
1	1847	8057
1	1836	8058
1	1800	8059
1	1595	8020
1	1563	8021
1	1538	8022
1	1529	8023
1	1531	8024
1	1546	8025
1	1566	8026
1	1590	8027
1	1616	8028
1	1660	8029
1	1712	8029
1	1752	8031
1	1783	8032
1	1800	8032
1	1814	8034
1	1820	8035
1	1793	8036
1	1764	8037
1	1736	8038
1	1706	8039
1	1759	8060
1	1724	8061
1	1674	8061
1	1622	8063
1	1575	8064
1	1534	8064
1	1505	8066
1	1504	8067
1	1529	8068
1	1558	8069
1	1600	8070
1	1652	8071
1	1713	8072
1	1764	8073
1	1808	8074
1	1837	8074
1	1858	8076
1	1865	8077
1	1863	8077
1	1845	8079
1	1815	8080
1	1770	8080
1	1738	8082
1	1706	8083
1	1672	8084
1	1649	8085
1	1638	8086
1	1655	8087
1	1660	8088
1	1652	8089
1	1660	8090
1	1674	8090
1	1682	8092
1	1687	8093
1	1705	8093
1	1721	8095
1	1737	8096
1	1746	8096
1	1762	8098
1	1765	8099
1	1775	8100
1	1773	8101
1	1769	8102
1	1760	8103
1	1740	8104
1	1715	8105
1	1708	8106
1	1708	8106
1	1716	8108
1	1729	8109
1	1736	8109
1	1738	8111
1	1736	8112
1	1728	8113
1	1710	8114
1	1693	8115
1	1675	8116
1	1667	8117
1	1662	8118
1	1659	8119
1	1644	8120
1	1622	8121
1	1593	8122
1	1563	8122
1	1554	8124
1	1553	8125
1	1553	8125
1	1562	8127
1	1595	8128
1	1634	8129
1	1673	8130
1	1706	8131
1	1729	8132
1	1737	8133
1	1736	8134
1	1731	8135
1	1718	8136
1	1697	8137
1	1671	8138
1	1634	8138
1	1606	8140
1	1585	8141
1	1576	8141
1	1559	8143
1	1544	8144
1	1535	8145
1	1532	8146
1	1555	8147
1	1586	8148
1	1633	8149
1	1686	8150
1	1750	8151
1	1795	8152
1	1843	8153
1	1881	8154
1	1906	8154
1	1919	8156
1	1909	8157
1	1891	8157
1	1852	8159
1	1802	8160
1	1747	8161
1	1706	8162
1	1667	8163
1	1631	8164
1	1607	8165
1	1595	8166
1	1589	8167
1	1590	8168
1	1599	8169
1	1628	8170
1	1664	8170
1	1701	8172
1	1729	8173
1	1746	8173
1	1762	8175
1	1764	8176
1	1773	8177
1	1782	8178
1	1787	8179
1	1782	8180
1	1764	8181
1	1733	8182
1	1708	8183
1	1686	8184
1	1685	8185
1	1699	8186
1	1715	8186
1	1728	8188
1	1742	8189
1	1759	8189
1	1767	8191
1	1779	8192
1	1796	8193
1	1813	8194
1	1816	8195
1	1817	8196
1	1801	8197
1	1785	8198
1	1769	8199
1	1760	8200
1	1743	8201
1	1715	8202
1	1684	8203
1	1664	8204
1	1654	8205
1	1638	8206
1	1636	8207
1	1638	8208
1	1645	8209
1	1660	8210
1	1677	8211
1	1680	8212
1	1680	8213
1	1673	8214
1	1659	8215
1	1644	8216
1	1634	8217
1	1634	8218
1	1634	8219
1	1644	8220
1	1647	8221
1	1650	8222
1	1651	8223
1	1650	8224
1	1654	8225
1	1660	8226
1	1668	8227
1	1661	8228
1	1659	8229
1	1664	8230
1	1689	8231
1	1705	8232
1	1711	8233
1	1711	8234
1	1707	8235
1	1698	8236
1	1688	8237
1	1677	8238
1	1657	8239
1	1625	8240
1	1593	8241
1	1561	8242
1	1541	8243
1	1544	8244
1	1571	8245
1	1598	8246
1	1626	8247
1	1651	8248
1	1683	8249
1	1715	8250
1	1737	8251
1	1751	8252
1	1749	8253
1	1748	8254
1	1738	8255
1	1725	8256
1	1699	8257
1	1686	8258
1	1677	8259
1	1660	8260
1	1647	8261
1	1636	8262
1	1629	8263
1	1629	8264
1	1629	8265
1	1619	8266
1	1607	8267
1	1607	8268
1	1622	8269
1	1634	8270
1	1655	8271
1	1683	8272
1	1712	8273
1	1738	8274
1	1760	8275
1	1764	8276
1	1752	8277
1	1728	8278
1	1692	8279
1	1648	8280
1	1605	8281
1	1572	8282
1	1548	8283
1	1529	8284
1	1517	8285
1	1529	8286
1	1546	8287
1	1581	8288
1	1628	8289
1	1675	8290
1	1734	8291
1	1800	8292
1	1862	8293
1	1903	8294
1	1935	8295
1	1965	8296
1	1998	8297
1	2022	8298
1	2036	8299
1	2052	8300
1	2070	8301
1	2084	8302
1	2096	8303
1	2102	8304
1	2110	8305
1	2119	8306
1	2132	8307
1	2145	8308
1	2142	8309
1	2143	8310
1	2147	8311
1	2158	8312
1	2158	8313
1	2133	8314
1	2087	8315
1	2035	8316
1	1974	8317
1	1914	8318
1	1854	8319
1	1789	8320
1	1739	8321
1	1698	8322
1	1674	8323
1	1654	8324
1	1641	8325
1	1626	8326
1	1618	8327
1	1618	8328
1	1625	8329
1	1634	8330
1	1648	8331
1	1669	8332
1	1686	8333
1	1694	8334
1	1693	8335
1	1694	8336
1	1687	8337
1	1680	8338
1	1675	8339
1	1666	8340
1	1647	8341
1	1622	8342
1	1590	8343
1	1554	8344
1	1528	8345
1	1508	8346
1	1500	8347
1	1500	8348
1	1510	8349
1	1536	8350
1	1572	8351
1	1612	8352
1	1647	8353
1	1674	8354
1	1693	8355
1	1700	8356
1	1699	8357
1	1687	8358
1	1669	8359
1	1655	8360
1	1650	8361
1	1631	8362
1	1598	8363
1	1573	8364
1	1558	8365
1	1561	8366
1	1573	8367
1	1589	8368
1	1609	8369
1	1643	8370
1	1678	8371
1	1716	8372
1	1751	8373
1	1764	8374
1	1764	8375
1	1775	8376
1	1776	8377
1	1770	8378
1	1763	8379
1	1742	8380
1	1723	8381
1	1692	8382
1	1652	8383
1	1607	8384
1	1584	8385
1	1570	8386
1	1569	8387
1	1579	8388
1	1606	8389
1	1636	8390
1	1672	8391
1	1701	8392
1	1728	8393
1	1738	8394
1	1733	8395
1	1714	8396
1	1699	8397
1	1686	8398
1	1679	8399
1	1678	8400
1	1647	8401
1	1613	8402
1	1587	8403
1	1576	8404
1	1563	8405
1	1559	8406
1	1558	8407
1	1566	8408
1	1581	8409
1	1597	8410
1	1608	8411
1	1623	8412
1	1638	8413
1	1656	8414
1	1670	8415
1	1681	8416
1	1686	8417
1	1683	8418
1	1665	8419
1	1660	8440
1	1652	8441
1	1643	8442
1	1642	8443
1	1647	8444
1	1660	8445
1	1669	8446
1	1686	8447
1	1698	8448
1	1712	8449
1	1725	8450
1	1747	8451
1	1748	8452
1	1742	8453
1	1738	8454
1	1735	8455
1	1723	8456
1	1715	8457
1	1713	8458
1	1718	8459
1	1652	8420
1	1645	8421
1	1629	8422
1	1602	8423
1	1593	8424
1	1585	8425
1	1584	8426
1	1596	8427
1	1619	8428
1	1647	8429
1	1675	8430
1	1696	8431
1	1714	8432
1	1733	8433
1	1741	8434
1	1738	8435
1	1720	8436
1	1699	8437
1	1686	8438
1	1673	8439
1	1712	8460
1	1691	8461
1	1665	8462
1	1647	8463
1	1634	8464
1	1621	8465
1	1616	8466
1	1611	8467
1	1613	8468
1	1620	8469
1	1625	8470
1	1634	8471
1	1652	8472
1	1686	8473
1	1718	8474
1	1741	8475
1	1746	8476
1	1756	8477
1	1764	8478
1	1762	8479
1	1751	8480
1	1739	8481
1	1715	8482
1	1681	8483
1	1629	8484
1	1581	8485
1	1557	8486
1	1555	8487
1	1569	8488
1	1592	8489
1	1624	8490
1	1657	8491
1	1697	8492
1	1728	8493
1	1749	8494
1	1749	8495
1	1755	8496
1	1753	8497
1	1743	8498
1	1719	8499
1	1688	8500
1	1677	8501
1	1675	8502
1	1671	8503
1	1657	8504
1	1639	8505
1	1629	8506
1	1642	8507
1	1667	8508
1	1694	8509
1	1724	8510
1	1754	8511
1	1773	8512
1	1789	8513
1	1791	8514
1	1785	8515
1	1769	8516
1	1756	8517
1	1742	8518
1	1720	8519
1	1688	8520
1	1638	8521
1	1599	8522
1	1580	8523
1	1571	8524
1	1568	8525
1	1576	8526
1	1585	8527
1	1608	8528
1	1638	8529
1	1660	8530
1	1686	8531
1	1716	8532
1	1759	8533
1	1791	8534
1	1824	8535
1	1840	8536
1	1841	8537
1	1834	8538
1	1817	8539
1	1715	8560
1	1701	8561
1	1677	8562
1	1655	8563
1	1647	8564
1	1657	8565
1	1670	8566
1	1697	8567
1	1721	8568
1	1737	8569
1	1743	8570
1	1760	8571
1	1764	8572
1	1769	8573
1	1765	8574
1	1752	8575
1	1727	8576
1	1702	8577
1	1674	8578
1	1636	8579
1	1778	8540
1	1736	8541
1	1701	8542
1	1671	8543
1	1649	8544
1	1633	8545
1	1622	8546
1	1613	8547
1	1605	8548
1	1593	8549
1	1587	8550
1	1584	8551
1	1589	8552
1	1602	8553
1	1618	8554
1	1633	8555
1	1659	8556
1	1684	8557
1	1707	8558
1	1720	8559
1	1587	8580
1	1541	8581
1	1521	8582
1	1520	8583
1	1521	8584
1	1527	8585
1	1550	8586
1	1581	8587
1	1621	8588
1	1662	8589
1	1705	8590
1	1740	8591
1	1766	8592
1	1776	8593
1	1769	8594
1	1766	8595
1	1764	8596
1	1760	8597
1	1749	8598
1	1727	8599
1	1701	8600
1	1698	8601
1	1697	8602
1	1691	8603
1	1672	8604
1	1642	8605
1	1611	8606
1	1594	8607
1	1593	8608
1	1604	8609
1	1625	8610
1	1643	8611
1	1658	8612
1	1673	8613
1	1692	8614
1	1708	8615
1	1724	8616
1	1737	8617
1	1750	8618
1	1759	8619
1	1756	8620
1	1748	8621
1	1712	8622
1	1686	8623
1	1658	8624
1	1636	8625
1	1629	8626
1	1620	8627
1	1619	8628
1	1623	8629
1	1634	8630
1	1652	8631
1	1675	8632
1	1697	8633
1	1715	8634
1	1719	8635
1	1724	8636
1	1717	8637
1	1715	8638
1	1715	8639
1	1715	8640
1	1694	8641
1	1662	8642
1	1646	8643
1	1635	8644
1	1633	8645
1	1630	8646
1	1617	8647
1	1597	8648
1	1572	8649
1	1555	8650
1	1555	8651
1	1572	8652
1	1599	8653
1	1634	8654
1	1661	8655
1	1691	8656
1	1731	8657
1	1763	8658
1	1780	8659
1	1778	8660
1	1769	8661
1	1741	8662
1	1712	8663
1	1691	8664
1	1687	8665
1	1700	8666
1	1715	8667
1	1727	8668
1	1736	8669
1	1738	8670
1	1721	8671
1	1703	8672
1	1687	8673
1	1674	8674
1	1670	8675
1	1677	8676
1	1678	8677
1	1686	8678
1	1690	8679
1	1585	8700
1	1563	8701
1	1547	8702
1	1534	8703
1	1535	8704
1	1546	8705
1	1564	8706
1	1587	8707
1	1618	8708
1	1649	8709
1	1682	8710
1	1710	8711
1	1741	8712
1	1767	8713
1	1782	8714
1	1789	8715
1	1782	8716
1	1777	8717
1	1766	8718
1	1751	8719
1	1686	8700
1	1686	8701
1	1687	8702
1	1697	8703
1	1701	8704
1	1705	8705
1	1711	8706
1	1721	8707
1	1738	8708
1	1766	8709
1	1809	8710
1	1842	8711
1	1843	8712
1	1826	8713
1	1798	8714
1	1773	8715
1	1742	8716
1	1707	8717
1	1665	8718
1	1620	8719
1	1728	8720
1	1711	8721
1	1681	8722
1	1647	8723
1	1639	8724
1	1636	8725
1	1631	8726
1	1632	8727
1	1638	8728
1	1647	8729
1	1656	8730
1	1664	8731
1	1674	8732
1	1679	8733
1	1675	8734
1	1677	8735
1	1671	8736
1	1660	8737
1	1643	8738
1	1623	8739
1	1602	8740
1	1586	8741
1	1563	8742
1	1539	8743
1	1520	8744
1	1518	8745
1	1539	8746
1	1577	8747
1	1623	8748
1	1674	8749
1	1712	8750
1	1747	8751
1	1764	8752
1	1768	8753
1	1773	8754
1	1778	8755
1	1778	8756
1	1770	8757
1	1754	8758
1	1744	8759
1	1731	8760
1	1714	8761
1	1701	8762
1	1681	8763
1	1654	8764
1	1633	8765
1	1634	8766
1	1647	8767
1	1677	8768
1	1712	8769
1	1739	8770
1	1776	8771
1	1808	8772
1	1819	8773
1	1814	8774
1	1781	8775
1	1737	8776
1	1693	8777
1	1664	8778
1	1647	8779
1	1634	8780
1	1626	8781
1	1620	8782
1	1621	8783
1	1629	8784
1	1641	8785
1	1660	8786
1	1683	8787
1	1703	8788
1	1725	8789
1	1742	8790
1	1749	8791
1	1758	8792
1	1763	8793
1	1769	8794
1	1773	8795
1	1782	8796
1	1764	8797
1	1746	8798
1	1716	8799
1	1677	8800
1	1640	8801
1	1616	8802
1	1606	8803
1	1604	8804
1	1611	8805
1	1618	8806
1	1637	8807
1	1657	8808
1	1677	8809
1	1711	8810
1	1760	8811
1	1795	8812
1	1816	8813
1	1816	8814
1	1803	8815
1	1791	8816
1	1774	8817
1	1759	8818
1	1747	8819
1	1737	8820
1	1712	8821
1	1691	8822
1	1674	8823
1	1664	8824
1	1661	8825
1	1649	8826
1	1634	8827
1	1628	8828
1	1636	8829
1	1652	8830
1	1675	8831
1	1701	8832
1	1734	8833
1	1767	8834
1	1787	8835
1	1772	8836
1	1742	8837
1	1712	8838
1	1686	8839
1	1665	8840
1	1643	8841
1	1620	8842
1	1596	8843
1	1575	8844
1	1557	8845
1	1555	8846
1	1561	8847
1	1579	8848
1	1596	8849
1	1616	8850
1	1628	8851
1	1643	8852
1	1656	8853
1	1656	8854
1	1652	8855
1	1657	8856
1	1648	8857
1	1629	8858
1	1592	8859
1	1556	8860
1	1552	8861
1	1553	8862
1	1551	8863
1	1542	8864
1	1533	8865
1	1533	8866
1	1542	8867
1	1555	8868
1	1571	8869
1	1598	8870
1	1638	8871
1	1659	8872
1	1665	8873
1	1682	8874
1	1689	8875
1	1686	8876
1	1682	8877
1	1683	8878
1	1683	8879
1	1674	8880
1	1657	8881
1	1649	8882
1	1643	8883
1	1633	8884
1	1605	8885
1	1576	8886
1	1546	8887
1	1528	8888
1	1517	8889
1	1525	8890
1	1532	8891
1	1537	8892
1	1551	8893
1	1580	8894
1	1608	8895
1	1644	8896
1	1681	8897
1	1724	8898
1	1785	8899
1	1844	8900
1	1891	8901
1	1917	8902
1	1937	8903
1	1949	8904
1	1963	8905
1	1976	8906
1	1998	8907
1	2023	8908
1	2052	8909
1	2076	8910
1	2093	8911
1	2114	8912
1	2135	8913
1	2156	8914
1	2171	8915
1	2183	8916
1	2182	8917
1	2170	8918
1	2149	8919
1	2106	8920
1	2054	8921
1	1982	8922
1	1932	8923
1	1873	8924
1	1843	8925
1	1827	8926
1	1823	8927
1	1809	8928
1	1790	8929
1	1764	8930
1	1739	8931
1	1737	8932
1	1726	8933
1	1711	8934
1	1699	8935
1	1676	8936
1	1650	8937
1	1632	8938
1	1613	8939
1	1582	8960
1	1534	8961
1	1485	8962
1	1446	8963
1	1429	8964
1	1424	8965
1	1435	8966
1	1456	8967
1	1487	8968
1	1511	8969
1	1535	8970
1	1555	8971
1	1587	8972
1	1621	8973
1	1648	8974
1	1664	8975
1	1679	8976
1	1674	8977
1	1665	8978
1	1672	8979
1	1594	8940
1	1563	8941
1	1531	8942
1	1501	8943
1	1465	8944
1	1445	8945
1	1449	8946
1	1459	8947
1	1485	8948
1	1525	8949
1	1567	8950
1	1602	8951
1	1634	8952
1	1669	8953
1	1694	8954
1	1718	8955
1	1725	8956
1	1712	8957
1	1687	8958
1	1643	8959
1	1544	9000
1	1529	9001
1	1519	9002
1	1502	9003
1	1490	9004
1	1489	9005
1	1515	9006
1	1553	9007
1	1591	9008
1	1631	9009
1	1660	9010
1	1683	9011
1	1699	9012
1	1716	9013
1	1737	9014
1	1751	9015
1	1750	9016
1	1746	9017
1	1743	9018
1	1737	9019
1	1685	8980
1	1687	8981
1	1693	8982
1	1692	8983
1	1686	8984
1	1681	8985
1	1669	8986
1	1656	8987
1	1652	8988
1	1651	8989
1	1647	8990
1	1661	8991
1	1670	8992
1	1672	8993
1	1664	8994
1	1652	8995
1	1642	8996
1	1630	8997
1	1607	8998
1	1572	8999
1	1715	9020
1	1695	9021
1	1660	9022
1	1620	9023
1	1598	9024
1	1583	9025
1	1569	9026
1	1566	9027
1	1581	9028
1	1607	9029
1	1625	9030
1	1638	9031
1	1657	9032
1	1662	9033
1	1660	9034
1	1656	9035
1	1647	9036
1	1638	9037
1	1629	9038
1	1611	9039
1	1711	9060
1	1692	9061
1	1670	9062
1	1644	9063
1	1615	9064
1	1591	9065
1	1575	9066
1	1559	9067
1	1562	9068
1	1577	9069
1	1594	9070
1	1603	9071
1	1609	9072
1	1623	9073
1	1634	9074
1	1634	9075
1	1629	9076
1	1630	9077
1	1638	9078
1	1649	9079
1	1602	9040
1	1585	9041
1	1577	9042
1	1574	9043
1	1580	9044
1	1581	9045
1	1580	9046
1	1594	9047
1	1617	9048
1	1634	9049
1	1660	9050
1	1694	9051
1	1715	9052
1	1738	9053
1	1751	9054
1	1749	9055
1	1738	9056
1	1734	9057
1	1728	9058
1	1722	9059
1	1658	9080
1	1660	9081
1	1647	9082
1	1630	9083
1	1615	9084
1	1620	9085
1	1637	9086
1	1660	9087
1	1687	9088
1	1716	9089
1	1731	9090
1	1744	9091
1	1761	9092
1	1764	9093
1	1752	9094
1	1751	9095
1	1764	9096
1	1764	9097
1	1755	9098
1	1741	9099
1	1723	9100
1	1697	9101
1	1673	9102
1	1657	9103
1	1645	9104
1	1634	9105
1	1611	9106
1	1599	9107
1	1609	9108
1	1636	9109
1	1664	9110
1	1701	9111
1	1723	9112
1	1734	9113
1	1737	9114
1	1734	9115
1	1729	9116
1	1724	9117
1	1723	9118
1	1729	9119
1	1739	9120
1	1744	9121
1	1744	9122
1	1730	9123
1	1711	9124
1	1686	9125
1	1652	9126
1	1634	9127
1	1633	9128
1	1647	9129
1	1662	9130
1	1681	9131
1	1694	9132
1	1700	9133
1	1704	9134
1	1704	9135
1	1695	9136
1	1688	9137
1	1686	9138
1	1677	9139
1	1652	9140
1	1613	9141
1	1576	9142
1	1537	9143
1	1503	9144
1	1481	9145
1	1472	9146
1	1469	9147
1	1476	9148
1	1479	9149
1	1487	9150
1	1502	9151
1	1530	9152
1	1564	9153
1	1607	9154
1	1650	9155
1	1686	9156
1	1692	9157
1	1680	9158
1	1663	9159
1	1651	9160
1	1639	9161
1	1628	9162
1	1619	9163
1	1607	9164
1	1593	9165
1	1577	9166
1	1574	9167
1	1598	9168
1	1638	9169
1	1682	9170
1	1738	9171
1	1786	9172
1	1821	9173
1	1834	9174
1	1816	9175
1	1775	9176
1	1730	9177
1	1690	9178
1	1656	9179
1	1620	9180
1	1580	9181
1	1555	9182
1	1564	9183
1	1592	9184
1	1622	9185
1	1655	9186
1	1685	9187
1	1711	9188
1	1731	9189
1	1751	9190
1	1769	9191
1	1787	9192
1	1800	9193
1	1809	9194
1	1789	9195
1	1755	9196
1	1719	9197
1	1686	9198
1	1642	9199
1	1607	9200
1	1603	9201
1	1611	9202
1	1626	9203
1	1634	9204
1	1620	9205
1	1602	9206
1	1586	9207
1	1587	9208
1	1599	9209
1	1608	9210
1	1616	9211
1	1629	9212
1	1643	9213
1	1656	9214
1	1660	9215
1	1665	9216
1	1662	9217
1	1661	9218
1	1668	9219
1	1672	9220
1	1660	9221
1	1620	9222
1	1596	9223
1	1584	9224
1	1593	9225
1	1602	9226
1	1611	9227
1	1629	9228
1	1642	9229
1	1651	9230
1	1652	9231
1	1659	9232
1	1665	9233
1	1683	9234
1	1704	9235
1	1717	9236
1	1725	9237
1	1708	9238
1	1690	9239
1	1688	9240
1	1693	9241
1	1697	9242
1	1692	9243
1	1686	9244
1	1669	9245
1	1662	9246
1	1661	9247
1	1659	9248
1	1660	9249
1	1670	9250
1	1688	9251
1	1711	9252
1	1728	9253
1	1750	9254
1	1773	9255
1	1794	9256
1	1818	9257
1	1832	9258
1	1820	9259
1	1795	9260
1	1766	9261
1	1726	9262
1	1678	9263
1	1635	9264
1	1607	9265
1	1593	9266
1	1593	9267
1	1607	9268
1	1629	9269
1	1659	9270
1	1683	9271
1	1707	9272
1	1722	9273
1	1733	9274
1	1730	9275
1	1737	9276
1	1740	9277
1	1750	9278
1	1754	9279
1	1754	9280
1	1733	9281
1	1703	9282
1	1674	9283
1	1652	9284
1	1633	9285
1	1629	9286
1	1630	9287
1	1636	9288
1	1659	9289
1	1690	9290
1	1733	9291
1	1754	9292
1	1762	9293
1	1765	9294
1	1776	9295
1	1777	9296
1	1764	9297
1	1757	9298
1	1764	9299
1	1767	9300
1	1751	9301
1	1712	9302
1	1667	9303
1	1622	9304
1	1593	9305
1	1582	9306
1	1579	9307
1	1583	9308
1	1597	9309
1	1619	9310
1	1647	9311
1	1675	9312
1	1702	9313
1	1723	9314
1	1733	9315
1	1723	9316
1	1703	9317
1	1678	9318
1	1647	9319
1	1611	9320
1	1581	9321
1	1554	9322
1	1518	9323
1	1506	9324
1	1500	9325
1	1494	9326
1	1493	9327
1	1503	9328
1	1540	9329
1	1583	9330
1	1629	9331
1	1662	9332
1	1693	9333
1	1724	9334
1	1749	9335
1	1764	9336
1	1785	9337
1	1784	9338
1	1769	9339
1	1764	9340
1	1751	9341
1	1731	9342
1	1713	9343
1	1706	9344
1	1702	9345
1	1698	9346
1	1700	9347
1	1704	9348
1	1701	9349
1	1707	9350
1	1725	9351
1	1746	9352
1	1759	9353
1	1764	9354
1	1764	9355
1	1750	9356
1	1730	9357
1	1717	9358
1	1712	9359
1	1704	9360
1	1689	9361
1	1664	9362
1	1618	9363
1	1558	9364
1	1525	9365
1	1529	9366
1	1553	9367
1	1580	9368
1	1616	9369
1	1664	9370
1	1706	9371
1	1740	9372
1	1764	9373
1	1776	9374
1	1777	9375
1	1773	9376
1	1774	9377
1	1764	9378
1	1747	9379
1	1714	9380
1	1688	9381
1	1661	9382
1	1651	9383
1	1648	9384
1	1649	9385
1	1646	9386
1	1645	9387
1	1660	9388
1	1688	9389
1	1712	9390
1	1722	9391
1	1741	9392
1	1764	9393
1	1782	9394
1	1787	9395
1	1796	9396
1	1782	9397
1	1751	9398
1	1711	9399
1	1683	9400
1	1654	9401
1	1634	9402
1	1625	9403
1	1620	9404
1	1620	9405
1	1621	9406
1	1634	9407
1	1652	9408
1	1681	9409
1	1698	9410
1	1724	9411
1	1751	9412
1	1787	9413
1	1827	9414
1	1856	9415
1	1869	9416
1	1863	9417
1	1843	9418
1	1818	9419
1	1792	9420
1	1760	9421
1	1728	9422
1	1697	9423
1	1675	9424
1	1654	9425
1	1634	9426
1	1612	9427
1	1587	9428
1	1584	9429
1	1580	9430
1	1584	9431
1	1603	9432
1	1611	9433
1	1616	9434
1	1625	9435
1	1634	9436
1	1636	9437
1	1629	9438
1	1625	9439
1	1625	9440
1	1624	9441
1	1620	9442
1	1593	9443
1	1576	9444
1	1582	9445
1	1608	9446
1	1638	9447
1	1667	9448
1	1686	9449
1	1686	9450
1	1672	9451
1	1665	9452
1	1674	9453
1	1684	9454
1	1692	9455
1	1715	9456
1	1733	9457
1	1727	9458
1	1712	9459
1	1691	9460
1	1669	9461
1	1650	9462
1	1637	9463
1	1620	9464
1	1596	9465
1	1580	9466
1	1577	9467
1	1581	9468
1	1584	9469
1	1585	9470
1	1587	9471
1	1581	9472
1	1583	9473
1	1593	9474
1	1607	9475
1	1626	9476
1	1636	9477
1	1638	9478
1	1634	9479
1	1629	9480
1	1616	9481
1	1607	9482
1	1595	9483
1	1586	9484
1	1569	9485
1	1558	9486
1	1546	9487
1	1543	9488
1	1553	9489
1	1567	9490
1	1581	9491
1	1594	9492
1	1611	9493
1	1625	9494
1	1634	9495
1	1649	9496
1	1661	9497
1	1677	9498
1	1686	9499
1	1693	9500
1	1716	9501
1	1727	9502
1	1751	9503
1	1791	9504
1	1844	9505
1	1904	9506
1	1963	9507
1	2023	9508
1	2090	9509
1	2150	9510
1	2201	9511
1	2255	9512
1	2279	9513
1	2288	9514
1	2287	9515
1	2279	9516
1	2262	9517
1	2243	9518
1	2210	9519
1	2176	9540
1	2146	9541
1	2104	9542
1	2069	9543
1	2024	9544
1	1991	9545
1	1969	9546
1	1943	9547
1	1910	9548
1	1880	9549
1	1847	9550
1	1817	9551
1	1790	9552
1	1764	9553
1	1744	9554
1	1744	9555
1	1747	9556
1	1753	9557
1	1751	9558
1	1741	9559
1	1714	9540
1	1674	9541
1	1634	9542
1	1590	9543
1	1550	9544
1	1518	9545
1	1497	9546
1	1477	9547
1	1464	9548
1	1458	9549
1	1465	9550
1	1481	9551
1	1507	9552
1	1541	9553
1	1571	9554
1	1602	9555
1	1616	9556
1	1626	9557
1	1633	9558
1	1636	9559
1	1563	9580
1	1567	9581
1	1579	9582
1	1580	9583
1	1572	9584
1	1565	9585
1	1571	9586
1	1586	9587
1	1603	9588
1	1612	9589
1	1618	9590
1	1634	9591
1	1638	9592
1	1637	9593
1	1635	9594
1	1628	9595
1	1613	9596
1	1606	9597
1	1597	9598
1	1589	9599
1	1582	9600
1	1570	9601
1	1566	9602
1	1564	9603
1	1567	9604
1	1566	9605
1	1577	9606
1	1590	9607
1	1607	9608
1	1624	9609
1	1634	9610
1	1647	9611
1	1652	9612
1	1643	9613
1	1625	9614
1	1613	9615
1	1607	9616
1	1607	9617
1	1605	9618
1	1590	9619
1	1638	9560
1	1644	9561
1	1639	9562
1	1638	9563
1	1639	9564
1	1643	9565
1	1644	9566
1	1638	9567
1	1622	9568
1	1598	9569
1	1575	9570
1	1556	9571
1	1555	9572
1	1556	9573
1	1556	9574
1	1552	9575
1	1552	9576
1	1555	9577
1	1553	9578
1	1555	9579
1	1570	9620
1	1557	9621
1	1538	9622
1	1508	9623
1	1481	9624
1	1469	9625
1	1478	9626
1	1504	9627
1	1537	9628
1	1563	9629
1	1593	9630
1	1622	9631
1	1646	9632
1	1660	9633
1	1661	9634
1	1661	9635
1	1670	9636
1	1677	9637
1	1673	9638
1	1661	9639
1	1623	9640
1	1582	9641
1	1553	9642
1	1529	9643
1	1515	9644
1	1497	9645
1	1466	9646
1	1454	9647
1	1477	9648
1	1520	9649
1	1571	9650
1	1622	9651
1	1654	9652
1	1678	9653
1	1691	9654
1	1692	9655
1	1686	9656
1	1686	9657
1	1681	9658
1	1660	9659
1	1636	9660
1	1611	9661
1	1593	9662
1	1574	9663
1	1560	9664
1	1556	9665
1	1573	9666
1	1589	9667
1	1615	9668
1	1644	9669
1	1665	9670
1	1688	9671
1	1712	9672
1	1721	9673
1	1727	9674
1	1719	9675
1	1698	9676
1	1674	9677
1	1644	9678
1	1615	9679
1	1587	9680
1	1567	9681
1	1541	9682
1	1521	9683
1	1521	9684
1	1555	9685
1	1595	9686
1	1633	9687
1	1669	9688
1	1698	9689
1	1716	9690
1	1721	9691
1	1726	9692
1	1736	9693
1	1741	9694
1	1740	9695
1	1738	9696
1	1735	9697
1	1728	9698
1	1713	9699
1	1694	9700
1	1663	9701
1	1620	9702
1	1587	9703
1	1566	9704
1	1538	9705
1	1503	9706
1	1482	9707
1	1478	9708
1	1486	9709
1	1508	9710
1	1548	9711
1	1583	9712
1	1616	9713
1	1643	9714
1	1664	9715
1	1678	9716
1	1692	9717
1	1688	9718
1	1674	9719
1	1670	9720
1	1667	9721
1	1674	9722
1	1660	9723
1	1638	9724
1	1608	9725
1	1579	9726
1	1553	9727
1	1529	9728
1	1528	9729
1	1529	9730
1	1529	9731
1	1541	9732
1	1553	9733
1	1562	9734
1	1576	9735
1	1595	9736
1	1621	9737
1	1634	9738
1	1642	9739
1	1658	9740
1	1672	9741
1	1673	9742
1	1660	9743
1	1641	9744
1	1618	9745
1	1598	9746
1	1598	9747
1	1609	9748
1	1621	9749
1	1635	9750
1	1655	9751
1	1670	9752
1	1670	9753
1	1670	9754
1	1661	9755
1	1658	9756
1	1647	9757
1	1645	9758
1	1651	9759
1	1643	9760
1	1620	9761
1	1605	9762
1	1593	9763
1	1579	9764
1	1559	9765
1	1529	9766
1	1503	9767
1	1487	9768
1	1476	9769
1	1472	9770
1	1484	9771
1	1510	9772
1	1535	9773
1	1561	9774
1	1585	9775
1	1598	9776
1	1605	9777
1	1611	9778
1	1613	9779
1	1603	9780
1	1597	9781
1	1589	9782
1	1577	9783
1	1567	9784
1	1567	9785
1	1582	9786
1	1602	9787
1	1615	9788
1	1628	9789
1	1651	9790
1	1678	9791
1	1697	9792
1	1701	9793
1	1694	9794
1	1686	9795
1	1682	9796
1	1682	9797
1	1672	9798
1	1659	9799
1	1658	9800
1	1669	9801
1	1672	9802
1	1668	9803
1	1651	9804
1	1625	9805
1	1603	9806
1	1598	9807
1	1607	9808
1	1626	9809
1	1659	9810
1	1685	9811
1	1710	9812
1	1728	9813
1	1738	9814
1	1742	9815
1	1749	9816
1	1741	9817
1	1716	9818
1	1683	9819
1	1661	9840
1	1612	9841
1	1566	9842
1	1529	9843
1	1502	9844
1	1490	9845
1	1503	9846
1	1524	9847
1	1554	9848
1	1590	9849
1	1622	9850
1	1641	9851
1	1642	9852
1	1645	9853
1	1647	9854
1	1652	9855
1	1655	9856
1	1660	9857
1	1662	9858
1	1665	9859
1	1645	9820
1	1608	9821
1	1586	9822
1	1583	9823
1	1579	9824
1	1567	9825
1	1561	9826
1	1568	9827
1	1585	9828
1	1607	9829
1	1636	9830
1	1676	9831
1	1723	9832
1	1764	9833
1	1803	9834
1	1828	9835
1	1817	9836
1	1787	9837
1	1747	9838
1	1706	9839
1	1665	9860
1	1665	9861
1	1661	9862
1	1661	9863
1	1664	9864
1	1664	9865
1	1662	9866
1	1661	9867
1	1660	9868
1	1652	9869
1	1638	9870
1	1611	9871
1	1590	9872
1	1581	9873
1	1595	9874
1	1611	9875
1	1643	9876
1	1669	9877
1	1693	9878
1	1697	9879
1	1684	9880
1	1671	9881
1	1651	9882
1	1639	9883
1	1639	9884
1	1646	9885
1	1651	9886
1	1668	9887
1	1686	9888
1	1704	9889
1	1719	9890
1	1731	9891
1	1724	9892
1	1723	9893
1	1726	9894
1	1726	9895
1	1728	9896
1	1727	9897
1	1724	9898
1	1712	9899
1	1700	9900
1	1685	9901
1	1661	9902
1	1634	9903
1	1603	9904
1	1585	9905
1	1580	9906
1	1574	9907
1	1581	9908
1	1602	9909
1	1620	9910
1	1633	9911
1	1638	9912
1	1654	9913
1	1668	9914
1	1679	9915
1	1686	9916
1	1688	9917
1	1674	9918
1	1651	9919
1	1657	9940
1	1635	9941
1	1611	9942
1	1584	9943
1	1565	9944
1	1555	9945
1	1539	9946
1	1529	9947
1	1524	9948
1	1525	9949
1	1527	9950
1	1553	9951
1	1580	9952
1	1607	9953
1	1616	9954
1	1613	9955
1	1621	9956
1	1642	9957
1	1660	9958
1	1679	9959
1	1625	9920
1	1616	9921
1	1606	9922
1	1594	9923
1	1606	9924
1	1611	9925
1	1607	9926
1	1603	9927
1	1607	9928
1	1618	9929
1	1634	9930
1	1659	9931
1	1680	9932
1	1700	9933
1	1717	9934
1	1713	9935
1	1703	9936
1	1688	9937
1	1681	9938
1	1668	9939
1	1685	9960
1	1681	9961
1	1686	9962
1	1699	9963
1	1700	9964
1	1701	9965
1	1728	9966
1	1755	9967
1	1773	9968
1	1791	9969
1	1817	9970
1	1843	9971
1	1865	9972
1	1883	9973
1	1894	9974
1	1888	9975
1	1868	9976
1	1823	9977
1	1764	9978
1	1711	9979
1	1667	9980
1	1633	9981
1	1596	9982
1	1566	9983
1	1548	9984
1	1544	9985
1	1561	9986
1	1581	9987
1	1603	9988
1	1634	9989
1	1679	9990
1	1722	9991
1	1764	9992
1	1793	9993
1	1815	9994
1	1813	9995
1	1790	9996
1	1751	9997
1	1708	9998
1	1680	9999
1	1665	10000
1	1665	10001
1	1667	10002
1	1661	10003
1	1656	10004
1	1646	10005
1	1616	10006
1	1597	10007
1	1567	10008
1	1530	10009
1	1513	10010
1	1524	10011
1	1540	10012
1	1564	10013
1	1593	10014
1	1610	10015
1	1618	10016
1	1611	10017
1	1602	10018
1	1584	10019
1	1566	10020
1	1550	10021
1	1541	10022
1	1535	10023
1	1531	10024
1	1530	10025
1	1529	10026
1	1514	10027
1	1507	10028
1	1517	10029
1	1541	10030
1	1575	10031
1	1607	10032
1	1638	10033
1	1665	10034
1	1683	10035
1	1674	10036
1	1657	10037
1	1634	10038
1	1605	10039
1	1582	10040
1	1570	10041
1	1566	10042
1	1553	10043
1	1534	10044
1	1515	10045
1	1505	10046
1	1504	10047
1	1517	10048
1	1530	10049
1	1553	10050
1	1563	10051
1	1568	10052
1	1577	10053
1	1589	10054
1	1605	10055
1	1626	10056
1	1634	10057
1	1635	10058
1	1645	10059
1	1647	10060
1	1646	10061
1	1636	10062
1	1611	10063
1	1581	10064
1	1544	10065
1	1513	10066
1	1494	10067
1	1483	10068
1	1485	10069
1	1490	10070
1	1507	10071
1	1529	10072
1	1554	10073
1	1590	10074
1	1618	10075
1	1638	10076
1	1671	10077
1	1708	10078
1	1754	10079
1	1800	10080
1	1841	10081
1	1881	10082
1	1934	10083
1	1992	10084
1	2052	10085
1	2110	10086
1	2158	10087
1	2201	10088
1	2235	10089
1	2264	10090
1	2303	10091
1	2345	10092
