#Date:= 2024-10-01T15:00:48.998173
#Sampling Rate(Hz):= 1000
#Labels:= LOD	ECG	TS
1	1510	20
1	1503	21
1	1501	22
1	1502	23
1	1511	24
1	1520	25
1	1517	26
1	1520	27
1	1516	28
1	128	29
1	139	30
1	294	31
1	485	32
1	718	33
1	972	34
1	1215	35
1	1452	36
1	1682	37
1	1895	38
1	2067	39
1	2211	40
1	2341	41
1	2445	42
1	2514	43
1	2570	44
1	2625	45
1	2688	46
1	2739	47
1	2775	48
1	2818	49
1	2861	50
1	2901	51
1	2942	52
1	2990	53
1	3033	54
1	3075	55
1	3130	56
1	3130	57
1	3130	58
1	3130	59
1	3130	60
1	3130	61
1	3130	62
1	3130	63
1	3130	64
1	3130	65
1	3130	66
1	3130	67
1	3130	68
1	3130	69
1	3130	70
1	3130	71
1	3130	72
1	3130	73
1	3130	74
1	3130	75
1	3130	76
1	3130	77
1	3130	78
1	3130	79
1	3130	80
1	3130	81
1	3130	82
1	3130	83
1	3130	84
1	3130	85
1	3130	86
1	3130	87
1	3130	88
1	3130	89
1	3130	90
1	3130	91
1	3130	92
1	3130	93
1	3130	94
1	3130	95
1	3130	96
1	3130	97
1	3130	98
1	3130	99
1	3130	100
1	3130	101
1	3130	102
1	3130	103
1	3130	104
1	3130	105
1	3130	106
1	3130	107
1	3130	108
1	3130	109
1	3130	110
1	3130	111
1	3130	112
1	3130	113
1	3130	114
1	3130	115
1	3130	116
1	3130	117
1	3130	118
1	3130	119
1	3130	120
1	3130	121
1	3130	122
1	3130	123
1	3130	124
1	3130	125
1	3130	126
1	3130	127
1	3130	128
1	3130	129
1	3130	130
1	3130	131
1	3130	132
1	3130	133
1	3130	134
1	3130	135
1	3130	136
1	3130	137
1	3130	138
1	3066	139
1	2921	140
1	2771	141
1	2627	142
1	2496	143
1	2356	144
1	2240	145
1	2148	146
1	2061	147
1	1973	148
1	1879	149
1	1791	150
1	1733	151
1	1708	152
1	1685	153
1	1660	154
1	1620	155
1	1555	156
1	1482	157
1	1404	158
1	1314	159
1	1223	160
1	1128	161
1	1014	162
1	874	163
1	720	164
1	589	165
1	507	166
1	481	167
1	499	168
1	550	169
1	598	170
1	641	171
1	673	172
1	670	173
1	630	174
1	579	175
1	535	176
1	505	177
1	467	178
1	442	179
1	446	180
1	484	181
1	560	182
1	664	183
1	794	184
1	936	185
1	1070	186
1	1206	187
1	1346	188
1	1500	189
1	1670	190
1	1823	191
1	1962	192
1	2093	193
1	2221	194
1	2355	195
1	2488	196
1	2624	197
1	2778	198
1	2934	199
1	3095	200
1	3130	201
1	3130	202
1	3130	203
1	3130	204
1	3130	205
1	3130	206
1	3130	207
1	3130	208
1	3130	209
1	3130	210
1	3130	211
1	3130	212
1	3130	213
1	3130	214
1	3130	215
1	3130	216
1	3130	217
1	3130	218
1	3130	219
1	3130	220
1	3130	221
1	3130	222
1	3130	223
1	3130	224
1	3130	225
1	3130	226
1	3130	227
1	3130	228
1	3130	229
1	3130	230
1	3130	231
1	3130	232
1	3130	233
1	3130	234
1	3130	235
1	3130	236
1	3130	237
1	3130	238
1	3130	239
1	3130	240
1	3130	241
1	3130	242
1	3130	243
1	3130	244
1	3130	245
1	3130	246
1	3130	247
1	3130	248
1	3130	249
1	3130	250
1	3130	251
1	3130	252
1	3130	253
1	3130	254
1	3130	255
1	3130	256
1	3130	257
1	3130	258
1	3130	259
1	3130	260
1	3130	261
1	3130	262
1	3130	263
1	3130	264
1	3130	265
1	3130	266
1	3130	267
1	3130	268
1	3130	269
1	3130	270
1	3130	271
1	3130	272
1	3130	273
1	3130	274
1	3130	275
1	3130	276
1	3130	277
1	3130	278
1	3130	279
1	3130	280
1	3130	281
1	3130	282
1	3130	283
1	3130	284
1	3130	285
1	3130	286
1	3130	287
1	3130	288
1	3130	289
1	3130	290
1	3130	291
1	3130	292
1	3130	293
1	3130	294
1	3130	295
1	3130	296
1	3130	297
1	3130	298
1	3130	299
1	3130	300
1	3130	301
1	3130	302
1	3130	303
1	3130	304
1	3130	305
1	3130	306
1	3130	307
1	3130	308
1	3130	309
1	3130	310
1	3130	311
1	3130	312
1	3130	313
1	3130	314
1	3130	315
1	3130	316
1	3130	317
1	3130	318
1	3130	319
1	3130	320
1	3130	321
1	3130	322
1	3130	323
1	3130	324
1	3130	325
1	3130	326
1	3130	327
1	3130	328
1	3130	329
1	3130	330
1	3130	331
1	3130	332
1	3130	333
1	3130	334
1	3130	335
1	3130	336
1	3130	337
1	3130	338
1	3130	339
1	3130	340
1	3130	341
1	3130	342
1	3130	343
1	3130	344
1	3130	345
1	3130	346
1	3130	347
1	3130	348
1	3130	349
1	3130	350
1	3130	351
1	3130	352
1	3130	353
1	3130	354
1	3130	355
1	3130	356
1	3130	357
1	3130	358
1	3130	359
1	3130	400
1	3130	401
1	3130	402
1	3130	403
1	3130	404
1	3130	405
1	3130	406
1	3130	407
1	3130	408
1	3130	409
1	3130	410
1	3130	411
1	3130	412
1	3130	413
1	3130	414
1	3130	415
1	3130	416
1	3130	417
1	3130	418
1	3130	419
1	3130	360
1	3130	361
1	3130	362
1	3130	363
1	3130	364
1	3130	365
1	3130	366
1	3130	367
1	3130	368
1	3130	369
1	3130	370
1	3130	371
1	3130	372
1	3130	373
1	3130	374
1	3130	375
1	3130	376
1	3130	377
1	3130	378
1	3130	379
1	3130	380
1	3130	381
1	3130	382
1	3130	383
1	3130	384
1	3130	385
1	3130	386
1	3130	387
1	3130	388
1	3130	389
1	3130	390
1	3130	391
1	3130	392
1	3130	393
1	3130	394
1	3130	395
1	3130	396
1	3130	397
1	3130	398
1	3130	399
1	3130	420
1	3130	421
1	3130	422
1	3130	423
1	3130	424
1	3130	425
1	3130	426
1	3130	427
1	3130	428
1	3130	429
1	3130	430
1	3130	431
1	3130	432
1	3130	433
1	3130	434
1	3130	435
1	3130	436
1	3130	437
1	3130	438
1	3130	439
1	3130	440
1	3130	441
1	3130	442
1	3130	443
1	3130	444
1	3130	445
1	3130	446
1	3130	447
1	3130	448
1	3130	449
1	3130	450
1	3130	451
1	3130	452
1	3130	453
1	3130	454
1	3130	455
1	3130	456
1	3130	457
1	3130	458
1	3130	459
1	3130	460
1	3130	461
1	3130	462
1	3130	463
1	3130	464
1	3130	465
1	3130	466
1	3130	467
1	3130	468
1	3130	469
1	3130	470
1	3130	471
1	3130	472
1	3130	473
1	3130	474
1	3130	475
1	3130	476
1	3130	477
1	3130	478
1	3130	479
1	3130	480
1	3130	481
1	3130	482
1	3130	483
1	3130	484
1	3130	485
1	3130	486
1	3130	487
1	3130	488
1	3130	489
1	3130	490
1	3130	491
1	3130	492
1	3130	493
1	3130	494
1	3130	495
1	3130	496
1	3130	497
1	3130	498
1	3130	499
1	3130	500
1	3130	501
1	3130	502
1	3130	503
1	3130	504
1	3130	505
1	3130	506
1	3130	507
1	3130	508
1	3130	509
1	3130	510
1	3130	511
1	3130	512
1	3130	513
1	3130	514
1	3130	515
1	3130	516
1	3130	517
1	3130	518
1	3130	519
1	3130	520
1	3130	521
1	3130	522
1	3130	523
1	3130	524
1	3130	525
1	3130	526
1	3130	527
1	3130	528
1	3130	529
1	3130	530
1	3130	531
1	3130	532
1	3130	533
1	3130	534
1	3130	535
1	3130	536
1	3130	537
1	3130	538
1	3130	539
1	3130	540
1	3130	541
1	3130	542
1	3130	543
1	3130	544
1	3130	545
1	3130	546
1	3130	547
1	3130	548
1	3130	549
1	3130	550
1	3130	551
1	3130	552
1	3130	553
1	3130	554
1	3130	555
1	3130	556
1	3130	557
1	3130	558
1	3130	559
1	3130	560
1	3130	561
1	3130	562
1	3130	563
1	3130	564
1	3130	565
1	3130	566
1	3130	567
1	3130	568
1	3130	569
1	3130	570
1	3130	571
1	3130	572
1	3130	573
1	3130	574
1	3130	575
1	3130	576
1	3130	577
1	3130	578
1	3130	579
1	3130	580
1	3130	581
1	3130	582
1	3130	583
1	3130	584
1	3130	585
1	3130	586
1	3130	587
1	3130	588
1	3130	589
1	3130	590
1	3130	591
1	3130	592
1	3130	593
1	3130	594
1	3130	595
1	3130	596
1	3130	597
1	3130	598
1	3130	599
1	3130	600
1	3130	601
1	3130	602
1	3130	603
1	3130	604
1	3130	605
1	3130	606
1	3130	607
1	3130	608
1	3130	609
1	3130	610
1	3130	611
1	3130	612
1	3130	613
1	3130	614
1	3130	615
1	3130	616
1	3130	617
1	3130	618
1	3130	619
1	3130	620
1	3130	621
1	3130	622
1	3130	623
1	3130	624
1	3130	625
1	3130	626
1	3130	627
1	3130	628
1	3130	629
1	3130	630
1	3130	631
1	3130	632
1	3130	633
1	3130	634
1	3130	635
1	3130	636
1	3130	637
1	3130	638
1	3130	639
1	3130	640
1	3130	641
1	3130	642
1	3130	643
1	3130	644
1	3130	645
1	3130	646
1	3130	647
1	3130	648
1	3130	649
1	3130	650
1	3130	651
1	3130	652
1	3130	653
1	3130	654
1	3130	655
1	3130	656
1	3130	657
1	3130	658
1	3130	659
1	3130	660
1	3130	661
1	3130	662
1	3130	663
1	3130	664
1	3130	665
1	3130	666
1	3130	667
1	3130	668
1	3130	669
1	3130	670
1	3130	671
1	3130	672
1	3130	673
1	3130	674
1	3130	675
1	3130	676
1	3130	677
1	3130	678
1	3130	679
1	3130	680
1	3130	681
1	3130	682
1	3130	683
1	3130	684
1	3130	685
1	3130	686
1	3130	687
1	3130	688
1	3130	689
1	3130	690
1	3130	691
1	3130	692
1	3130	693
1	3130	694
1	3130	695
1	3130	696
1	3130	697
1	3130	698
1	3130	699
1	3130	700
1	3130	701
1	3130	702
1	3130	703
1	3130	704
1	3130	705
1	3130	706
1	3130	707
1	3130	708
1	3130	709
1	3130	710
1	3130	711
1	3130	712
1	3130	713
1	3130	714
1	3130	715
1	3130	716
1	3130	717
1	3130	718
1	3130	719
1	3130	720
1	3130	721
1	3130	722
1	3130	723
1	3130	724
1	3130	725
1	3130	726
1	3130	727
1	3130	728
1	3130	729
1	3130	730
1	3130	731
1	3130	732
1	3130	733
1	3130	734
1	3130	735
1	3130	736
1	3130	737
1	3130	738
1	3130	739
1	3130	740
1	3130	741
1	3130	742
1	3130	743
1	3130	744
1	3130	745
1	3130	746
1	3130	747
1	3130	748
1	3130	749
1	3130	750
1	3130	751
1	3130	752
1	3130	753
1	3130	754
1	3130	755
1	3130	756
1	3130	757
1	3130	758
1	3130	759
1	3130	760
1	3130	761
1	3130	762
1	3130	763
1	3130	764
1	3130	765
1	3130	766
1	3130	767
1	3130	768
1	3130	769
1	3130	770
1	3130	771
1	3130	772
1	3130	773
1	3107	774
1	3100	775
1	3110	776
1	3130	777
1	3130	778
1	3130	779
1	3130	780
1	3107	781
1	3059	782
1	2997	783
1	2931	784
1	2869	785
1	2822	786
1	2782	787
1	2745	788
1	2710	789
1	2684	790
1	2658	791
1	2651	792
1	2656	793
1	2674	794
1	2707	795
1	2739	796
1	2757	797
1	2776	798
1	2784	799
1	2782	800
1	2764	801
1	2726	802
1	2677	803
1	2623	804
1	2560	805
1	2499	806
1	2440	807
1	2371	808
1	2302	809
1	2258	810
1	2210	811
1	2179	812
1	2157	813
1	2153	814
1	2166	815
1	2183	816
1	2212	817
1	2248	818
1	2288	819
1	2327	820
1	2358	821
1	2368	822
1	2359	823
1	2330	824
1	2292	825
1	2246	826
1	2195	827
1	2152	828
1	2108	829
1	2078	830
1	2051	831
1	2029	832
1	2023	833
1	2032	834
1	2061	835
1	2115	836
1	2194	837
1	2271	838
1	2323	839
1	2336	840
1	2314	841
1	2257	842
1	2166	843
1	2078	844
1	1985	845
1	1907	846
1	1861	847
1	1845	848
1	1844	849
1	1857	850
1	1868	851
1	1881	852
1	1899	853
1	1921	854
1	1961	855
1	2012	856
1	2075	857
1	2131	858
1	2179	859
1	2204	860
1	2208	861
1	2199	862
1	2179	863
1	2131	864
1	2063	865
1	1981	866
1	1904	867
1	1832	868
1	1763	869
1	1727	870
1	1713	871
1	1733	872
1	1775	873
1	1841	874
1	1912	875
1	1979	876
1	2045	877
1	2100	878
1	2147	879
1	2183	880
1	2197	881
1	2205	882
1	2194	883
1	2169	884
1	2133	885
1	2079	886
1	2025	887
1	1958	888
1	1904	889
1	1868	890
1	1840	891
1	1817	892
1	1819	893
1	1852	894
1	1874	895
1	1888	896
1	1906	897
1	1940	898
1	1978	899
1	2030	900
1	2078	901
1	2114	902
1	2145	903
1	2165	904
1	2171	905
1	2158	906
1	2126	907
1	2078	908
1	2026	909
1	1985	910
1	1948	911
1	1922	912
1	1912	913
1	1913	914
1	1937	915
1	1974	916
1	2027	917
1	2095	918
1	2166	919
1	2233	920
1	2285	921
1	2323	922
1	2340	923
1	2330	924
1	2288	925
1	2207	926
1	2109	927
1	2002	928
1	1890	929
1	1801	930
1	1725	931
1	1675	932
1	1642	933
1	1647	934
1	1665	935
1	1710	936
1	1775	937
1	1868	938
1	1960	939
1	2052	940
1	2124	941
1	2166	942
1	2184	943
1	2188	944
1	2173	945
1	2148	946
1	2111	947
1	2063	948
1	2011	949
1	1955	950
1	1900	951
1	1863	952
1	1843	953
1	1840	954
1	1844	955
1	1856	956
1	1884	957
1	1926	958
1	1974	959
1	2009	960
1	2026	961
1	2034	962
1	2029	963
1	2026	964
1	2012	965
1	1986	966
1	1953	967
1	1916	968
1	1870	969
1	1823	970
1	1772	971
1	1757	972
1	1767	973
1	1799	974
1	1856	975
1	1913	976
1	1973	977
1	2032	978
1	2091	979
1	2138	980
1	2175	981
1	2193	982
1	2192	983
1	2170	984
1	2126	985
1	2057	986
1	1998	987
1	1948	988
1	1904	989
1	1881	990
1	1856	991
1	1835	992
1	1826	993
1	1836	994
1	1858	995
1	1896	996
1	1940	997
1	1986	998
1	2035	999
1	2077	1000
1	2105	1001
1	2132	1002
1	2144	1003
1	2145	1004
1	2142	1005
1	2129	1006
1	2118	1007
1	2091	1008
1	2048	1009
1	1999	1010
1	1949	1011
1	1904	1012
1	1877	1013
1	1869	1014
1	1877	1015
1	1883	1016
1	1890	1017
1	1900	1018
1	1923	1019
1	1957	1020
1	1970	1021
1	1963	1022
1	1940	1023
1	1904	1024
1	1856	1025
1	1798	1026
1	1750	1027
1	1712	1028
1	1683	1029
1	1664	1030
1	1646	1031
1	1639	1032
1	1656	1033
1	1688	1034
1	1737	1035
1	1782	1036
1	1841	1037
1	1886	1038
1	1932	1039
1	1899	1060
1	1917	1061
1	1922	1062
1	1911	1063
1	1891	1064
1	1862	1065
1	1818	1066
1	1777	1067
1	1741	1068
1	1711	1069
1	1697	1070
1	1697	1071
1	1705	1072
1	1721	1073
1	1746	1074
1	1779	1075
1	1826	1076
1	1886	1077
1	1962	1078
1	2038	1079
1	1959	1040
1	1974	1041
1	1976	1042
1	1966	1043
1	1936	1044
1	1885	1045
1	1812	1046
1	1743	1047
1	1691	1048
1	1649	1049
1	1627	1050
1	1620	1051
1	1633	1052
1	1657	1053
1	1685	1054
1	1716	1055
1	1757	1056
1	1799	1057
1	1838	1058
1	1869	1059
1	2107	1080
1	2155	1081
1	2178	1082
1	2183	1083
1	2179	1084
1	2158	1085
1	2135	1086
1	2110	1087
1	2079	1088
1	2055	1089
1	2055	1090
1	2066	1091
1	2093	1092
1	2129	1093
1	2181	1094
1	2249	1095
1	2302	1096
1	2336	1097
1	2342	1098
1	2328	1099
1	2296	1100
1	2243	1101
1	2165	1102
1	2066	1103
1	1948	1104
1	1816	1105
1	1667	1106
1	1530	1107
1	1404	1108
1	1291	1109
1	1210	1110
1	1139	1111
1	1098	1112
1	1080	1113
1	1081	1114
1	1103	1115
1	1143	1116
1	1176	1117
1	1206	1118
1	1233	1119
1	1266	1120
1	1283	1121
1	1297	1122
1	1296	1123
1	1267	1124
1	1232	1125
1	1180	1126
1	1126	1127
1	1078	1128
1	1032	1129
1	1016	1130
1	1011	1131
1	1033	1132
1	1085	1133
1	1139	1134
1	1191	1135
1	1247	1136
1	1294	1137
1	1346	1138
1	1412	1139
1	1820	1160
1	1834	1161
1	1826	1162
1	1803	1163
1	1770	1164
1	1728	1165
1	1669	1166
1	1613	1167
1	1572	1168
1	1551	1169
1	1544	1170
1	1546	1171
1	1566	1172
1	1599	1173
1	1643	1174
1	1699	1175
1	1764	1176
1	1843	1177
1	1917	1178
1	1978	1179
1	1481	1140
1	1549	1141
1	1607	1142
1	1654	1143
1	1692	1144
1	1702	1145
1	1698	1146
1	1680	1147
1	1652	1148
1	1622	1149
1	1600	1150
1	1580	1151
1	1571	1152
1	1571	1153
1	1583	1154
1	1620	1155
1	1658	1156
1	1700	1157
1	1746	1158
1	1790	1159
1	2022	1180
1	2036	1181
1	2038	1182
1	2019	1183
1	1978	1184
1	1922	1185
1	1845	1186
1	1764	1187
1	1692	1188
1	1631	1189
1	1579	1190
1	1537	1191
1	1520	1192
1	1518	1193
1	1531	1194
1	1557	1195
1	1584	1196
1	1619	1197
1	1659	1198
1	1701	1199
1	1746	1200
1	1782	1201
1	1817	1202
1	1839	1203
1	1841	1204
1	1819	1205
1	1783	1206
1	1738	1207
1	1688	1208
1	1645	1209
1	1611	1210
1	1584	1211
1	1584	1212
1	1595	1213
1	1620	1214
1	1662	1215
1	1710	1216
1	1763	1217
1	1823	1218
1	1869	1219
1	1905	1220
1	1934	1221
1	1952	1222
1	1960	1223
1	1952	1224
1	1935	1225
1	1899	1226
1	1857	1227
1	1811	1228
1	1756	1229
1	1719	1230
1	1686	1231
1	1660	1232
1	1660	1233
1	1662	1234
1	1698	1235
1	1736	1236
1	1781	1237
1	1843	1238
1	1905	1239
1	1949	1240
1	1981	1241
1	1988	1242
1	1975	1243
1	1947	1244
1	1904	1245
1	1857	1246
1	1814	1247
1	1764	1248
1	1736	1249
1	1712	1250
1	1695	1251
1	1696	1252
1	1708	1253
1	1737	1254
1	1773	1255
1	1817	1256
1	1861	1257
1	1907	1258
1	1948	1259
1	1989	1260
1	2014	1261
1	2028	1262
1	2033	1263
1	2025	1264
1	2003	1265
1	1974	1266
1	1940	1267
1	1909	1268
1	1886	1269
1	1872	1270
1	1870	1271
1	1884	1272
1	1906	1273
1	1940	1274
1	1994	1275
1	2043	1276
1	2083	1277
1	2121	1278
1	2155	1279
1	2183	1280
1	2201	1281
1	2205	1282
1	2196	1283
1	2181	1284
1	2151	1285
1	2105	1286
1	2066	1287
1	2016	1288
1	1951	1289
1	1890	1290
1	1834	1291
1	1800	1292
1	1791	1293
1	1813	1294
1	1843	1295
1	1888	1296
1	1944	1297
1	2007	1298
1	2066	1299
1	2114	1300
1	2140	1301
1	2149	1302
1	2138	1303
1	2116	1304
1	2077	1305
1	2035	1306
1	1985	1307
1	1930	1308
1	1881	1309
1	1850	1310
1	1832	1311
1	1829	1312
1	1847	1313
1	1890	1314
1	1957	1315
1	2025	1316
1	2093	1317
1	2157	1318
1	2210	1319
1	2255	1320
1	2261	1321
1	2237	1322
1	2201	1323
1	2156	1324
1	2100	1325
1	2040	1326
1	1988	1327
1	1936	1328
1	1880	1329
1	1827	1330
1	1767	1331
1	1732	1332
1	1711	1333
1	1710	1334
1	1723	1335
1	1749	1336
1	1788	1337
1	1832	1338
1	1885	1339
1	1927	1340
1	1961	1341
1	1970	1342
1	1963	1343
1	1950	1344
1	1922	1345
1	1867	1346
1	1800	1347
1	1733	1348
1	1673	1349
1	1638	1350
1	1620	1351
1	1623	1352
1	1646	1353
1	1685	1354
1	1731	1355
1	1775	1356
1	1818	1357
1	1854	1358
1	1878	1359
1	1898	1360
1	1898	1361
1	1895	1362
1	1871	1363
1	1832	1364
1	1782	1365
1	1718	1366
1	1651	1367
1	1589	1368
1	1539	1369
1	1508	1370
1	1489	1371
1	1476	1372
1	1469	1373
1	1474	1374
1	1490	1375
1	1517	1376
1	1554	1377
1	1597	1378
1	1634	1379
1	1661	1380
1	1672	1381
1	1667	1382
1	1659	1383
1	1647	1384
1	1628	1385
1	1600	1386
1	1569	1387
1	1538	1388
1	1505	1389
1	1486	1390
1	1472	1391
1	1490	1392
1	1527	1393
1	1571	1394
1	1629	1395
1	1685	1396
1	1737	1397
1	1783	1398
1	1825	1399
1	1847	1400
1	1859	1401
1	1854	1402
1	1827	1403
1	1782	1404
1	1737	1405
1	1686	1406
1	1639	1407
1	1589	1408
1	1541	1409
1	1500	1410
1	1467	1411
1	1450	1412
1	1450	1413
1	1471	1414
1	1503	1415
1	1547	1416
1	1598	1417
1	1658	1418
1	1711	1419
1	1755	1420
1	1783	1421
1	1793	1422
1	1787	1423
1	1760	1424
1	1725	1425
1	1674	1426
1	1620	1427
1	1577	1428
1	1540	1429
1	1510	1430
1	1481	1431
1	1475	1432
1	1484	1433
1	1511	1434
1	1555	1435
1	1616	1436
1	1672	1437
1	1716	1438
1	1762	1439
1	1800	1440
1	1834	1441
1	1845	1442
1	1843	1443
1	1826	1444
1	1772	1445
1	1705	1446
1	1634	1447
1	1555	1448
1	1484	1449
1	1438	1450
1	1409	1451
1	1400	1452
1	1415	1453
1	1449	1454
1	1503	1455
1	1553	1456
1	1607	1457
1	1668	1458
1	1737	1459
1	1793	1460
1	1842	1461
1	1870	1462
1	1888	1463
1	1883	1464
1	1860	1465
1	1816	1466
1	1761	1467
1	1699	1468
1	1634	1469
1	1584	1470
1	1555	1471
1	1544	1472
1	1553	1473
1	1577	1474
1	1611	1475
1	1656	1476
1	1699	1477
1	1738	1478
1	1773	1479
1	1801	1480
1	1818	1481
1	1825	1482
1	1821	1483
1	1798	1484
1	1767	1485
1	1733	1486
1	1692	1487
1	1654	1488
1	1632	1489
1	1618	1490
1	1607	1491
1	1607	1492
1	1619	1493
1	1635	1494
1	1656	1495
1	1673	1496
1	1689	1497
1	1710	1498
1	1730	1499
1	1754	1500
1	1764	1501
1	1755	1502
1	1741	1503
1	1719	1504
1	1686	1505
1	1638	1506
1	1587	1507
1	1541	1508
1	1504	1509
1	1485	1510
1	1471	1511
1	1476	1512
1	1502	1513
1	1537	1514
1	1596	1515
1	1661	1516
1	1726	1517
1	1783	1518
1	1832	1519
1	1898	1540
1	1922	1541
1	1923	1542
1	1917	1543
1	1886	1544
1	1839	1545
1	1782	1546
1	1729	1547
1	1674	1548
1	1626	1549
1	1587	1550
1	1571	1551
1	1572	1552
1	1595	1553
1	1633	1554
1	1682	1555
1	1734	1556
1	1787	1557
1	1844	1558
1	1895	1559
1	1861	1520
1	1868	1521
1	1855	1522
1	1817	1523
1	1755	1524
1	1688	1525
1	1617	1526
1	1559	1527
1	1517	1528
1	1481	1529
1	1472	1530
1	1471	1531
1	1477	1532
1	1515	1533
1	1560	1534
1	1621	1535
1	1685	1536
1	1751	1537
1	1813	1538
1	1863	1539
1	1946	1560
1	1978	1561
1	1999	1562
1	1994	1563
1	1968	1564
1	1922	1565
1	1864	1566
1	1793	1567
1	1724	1568
1	1662	1569
1	1620	1570
1	1585	1571
1	1579	1572
1	1584	1573
1	1602	1574
1	1629	1575
1	1659	1576
1	1686	1577
1	1712	1578
1	1733	1579
1	1740	1580
1	1737	1581
1	1711	1582
1	1681	1583
1	1645	1584
1	1607	1585
1	1575	1586
1	1553	1587
1	1530	1588
1	1510	1589
1	1507	1590
1	1517	1591
1	1550	1592
1	1598	1593
1	1655	1594
1	1709	1595
1	1755	1596
1	1789	1597
1	1809	1598
1	1811	1599
1	1791	1600
1	1764	1601
1	1739	1602
1	1720	1603
1	1701	1604
1	1688	1605
1	1674	1606
1	1660	1607
1	1647	1608
1	1643	1609
1	1641	1610
1	1646	1611
1	1664	1612
1	1695	1613
1	1726	1614
1	1755	1615
1	1785	1616
1	1817	1617
1	1841	1618
1	1858	1619
1	1873	1620
1	1871	1621
1	1856	1622
1	1815	1623
1	1751	1624
1	1684	1625
1	1618	1626
1	1559	1627
1	1515	1628
1	1476	1629
1	1452	1630
1	1425	1631
1	1410	1632
1	1415	1633
1	1437	1634
1	1472	1635
1	1515	1636
1	1570	1637
1	1637	1638
1	1708	1639
1	2192	1660
1	2079	1661
1	1948	1662
1	1792	1663
1	1625	1664
1	1456	1665
1	1292	1666
1	1157	1667
1	1044	1668
1	961	1669
1	909	1670
1	889	1671
1	896	1672
1	917	1673
1	952	1674
1	995	1675
1	1031	1676
1	1070	1677
1	1104	1678
1	1119	1679
1	1765	1640
1	1825	1641
1	1870	1642
1	1914	1643
1	1953	1644
1	1989	1645
1	2016	1646
1	2048	1647
1	2075	1648
1	2105	1649
1	2147	1650
1	2184	1651
1	2238	1652
1	2286	1653
1	2335	1654
1	2372	1655
1	2392	1656
1	2381	1657
1	2342	1658
1	2284	1659
1	1127	1680
1	1123	1681
1	1111	1682
1	1097	1683
1	1070	1684
1	1039	1685
1	1007	1686
1	979	1687
1	951	1688
1	932	1689
1	927	1690
1	937	1691
1	978	1692
1	1031	1693
1	1098	1694
1	1175	1695
1	1252	1696
1	1330	1697
1	1414	1698
1	1495	1699
1	1577	1700
1	1638	1701
1	1686	1702
1	1718	1703
1	1724	1704
1	1712	1705
1	1681	1706
1	1646	1707
1	1611	1708
1	1584	1709
1	1565	1710
1	1542	1711
1	1529	1712
1	1535	1713
1	1561	1714
1	1599	1715
1	1643	1716
1	1691	1717
1	1743	1718
1	1795	1719
1	1843	1740
1	1868	1741
1	1883	1742
1	1877	1743
1	1857	1744
1	1832	1745
1	1790	1746
1	1746	1747
1	1699	1748
1	1652	1749
1	1615	1750
1	1581	1751
1	1568	1752
1	1571	1753
1	1585	1754
1	1609	1755
1	1643	1756
1	1670	1757
1	1698	1758
1	1723	1759
1	1744	1740
1	1762	1741
1	1769	1742
1	1762	1743
1	1749	1744
1	1724	1745
1	1693	1746
1	1664	1747
1	1638	1748
1	1617	1749
1	1611	1750
1	1613	1751
1	1625	1752
1	1647	1753
1	1685	1754
1	1731	1755
1	1762	1756
1	1787	1757
1	1818	1758
1	1845	1759
1	1872	1760
1	1895	1761
1	1904	1762
1	1895	1763
1	1869	1764
1	1832	1765
1	1780	1766
1	1738	1767
1	1701	1768
1	1668	1769
1	1643	1770
1	1622	1771
1	1621	1772
1	1633	1773
1	1647	1774
1	1667	1775
1	1695	1776
1	1723	1777
1	1751	1778
1	1779	1779
1	1796	1780
1	1801	1781
1	1810	1782
1	1814	1783
1	1812	1784
1	1799	1785
1	1778	1786
1	1757	1787
1	1742	1788
1	1740	1789
1	1750	1790
1	1769	1791
1	1792	1792
1	1828	1793
1	1867	1794
1	1901	1795
1	1935	1796
1	1966	1797
1	1993	1798
1	2006	1799
1	2014	1800
1	2000	1801
1	1978	1802
1	1947	1803
1	1907	1804
1	1861	1805
1	1814	1806
1	1764	1807
1	1719	1808
1	1678	1809
1	1647	1810
1	1629	1811
1	1639	1812
1	1679	1813
1	1738	1814
1	1817	1815
1	1894	1816
1	1975	1817
1	2061	1818
1	2139	1819
1	2207	1820
1	2261	1821
1	2288	1822
1	2289	1823
1	2269	1824
1	2231	1825
1	2174	1826
1	2129	1827
1	2079	1828
1	2028	1829
1	1996	1830
1	1971	1831
1	1957	1832
1	1971	1833
1	1996	1834
1	2026	1835
1	2053	1836
1	2088	1837
1	2122	1838
1	2145	1839
1	2159	1840
1	2162	1841
1	2153	1842
1	2133	1843
1	2117	1844
1	2092	1845
1	2075	1846
1	2052	1847
1	2042	1848
1	2047	1849
1	2049	1850
1	2052	1851
1	2058	1852
1	2066	1853
1	2081	1854
1	2102	1855
1	2112	1856
1	2117	1857
1	2117	1858
1	2106	1859
1	2324	1880
1	2341	1881
1	2333	1882
1	2310	1883
1	2263	1884
1	2200	1885
1	2122	1886
1	2043	1887
1	1952	1888
1	1863	1889
1	1790	1890
1	1731	1891
1	1699	1892
1	1688	1893
1	1708	1894
1	1741	1895
1	1789	1896
1	1845	1897
1	1907	1898
1	1962	1899
1	2094	1860
1	2065	1861
1	2016	1862
1	1962	1863
1	1904	1864
1	1854	1865
1	1797	1866
1	1764	1867
1	1757	1868
1	1768	1869
1	1793	1870
1	1827	1871
1	1869	1872
1	1919	1873
1	1975	1874
1	2050	1875
1	2118	1876
1	2183	1877
1	2245	1878
1	2290	1879
1	2009	1900
1	2026	1901
1	2023	1902
1	2001	1903
1	1962	1904
1	1913	1905
1	1856	1906
1	1778	1907
1	1697	1908
1	1616	1909
1	1549	1910
1	1497	1911
1	1472	1912
1	1476	1913
1	1494	1914
1	1521	1915
1	1545	1916
1	1574	1917
1	1607	1918
1	1641	1919
1	1680	1920
1	1711	1921
1	1730	1922
1	1738	1923
1	1736	1924
1	1725	1925
1	1711	1926
1	1691	1927
1	1665	1928
1	1647	1929
1	1628	1930
1	1598	1931
1	1579	1932
1	1561	1933
1	1564	1934
1	1571	1935
1	1581	1936
1	1599	1937
1	1623	1938
1	1647	1939
1	1659	1940
1	1659	1941
1	1651	1942
1	1638	1943
1	1620	1944
1	1593	1945
1	1558	1946
1	1533	1947
1	1513	1948
1	1503	1949
1	1499	1950
1	1508	1951
1	1521	1952
1	1543	1953
1	1580	1954
1	1623	1955
1	1669	1956
1	1706	1957
1	1738	1958
1	1766	1959
1	1791	1960
1	1800	1961
1	1808	1962
1	1800	1963
1	1780	1964
1	1751	1965
1	1705	1966
1	1658	1967
1	1612	1968
1	1580	1969
1	1550	1970
1	1528	1971
1	1515	1972
1	1518	1973
1	1539	1974
1	1571	1975
1	1607	1976
1	1648	1977
1	1687	1978
1	1724	1979
1	1760	1980
1	1779	1981
1	1783	1982
1	1766	1983
1	1738	1984
1	1694	1985
1	1641	1986
1	1587	1987
1	1539	1988
1	1493	1989
1	1458	1990
1	1432	1991
1	1424	1992
1	1436	1993
1	1463	1994
1	1513	1995
1	1557	1996
1	1605	1997
1	1646	1998
1	1669	1999
1	1683	2000
1	1682	2001
1	1672	2002
1	1661	2003
1	1647	2004
1	1625	2005
1	1585	2006
1	1555	2007
1	1533	2008
1	1524	2009
1	1524	2010
1	1530	2011
1	1553	2012
1	1584	2013
1	1633	2014
1	1693	2015
1	1764	2016
1	1832	2017
1	1877	2018
1	1908	2019
1	1916	2020
1	1891	2021
1	1848	2022
1	1787	2023
1	1721	2024
1	1660	2025
1	1590	2026
1	1521	2027
1	1450	2028
1	1376	2029
1	1332	2030
1	1305	2031
1	1312	2032
1	1345	2033
1	1395	2034
1	1448	2035
1	1500	2036
1	1543	2037
1	1592	2038
1	1632	2039
1	1665	2040
1	1683	2041
1	1687	2042
1	1682	2043
1	1668	2044
1	1647	2045
1	1616	2046
1	1590	2047
1	1564	2048
1	1548	2049
1	1539	2050
1	1528	2051
1	1525	2052
1	1520	2053
1	1521	2054
1	1539	2055
1	1559	2056
1	1584	2057
1	1610	2058
1	1634	2059
1	1656	2060
1	1675	2061
1	1688	2062
1	1698	2063
1	1695	2064
1	1682	2065
1	1660	2066
1	1633	2067
1	1602	2068
1	1582	2069
1	1595	2070
1	1620	2071
1	1647	2072
1	1674	2073
1	1701	2074
1	1729	2075
1	1759	2076
1	1767	2077
1	1764	2078
1	1750	2079
1	1728	2080
1	1687	2081
1	1652	2082
1	1623	2083
1	1593	2084
1	1566	2085
1	1533	2086
1	1503	2087
1	1473	2088
1	1450	2089
1	1441	2090
1	1443	2091
1	1455	2092
1	1480	2093
1	1521	2094
1	1577	2095
1	1625	2096
1	1680	2097
1	1729	2098
1	1769	2099
1	1814	2100
1	1834	2101
1	1839	2102
1	1825	2103
1	1789	2104
1	1741	2105
1	1687	2106
1	1638	2107
1	1592	2108
1	1553	2109
1	1518	2110
1	1494	2111
1	1490	2112
1	1503	2113
1	1523	2114
1	1561	2115
1	1602	2116
1	1649	2117
1	1697	2118
1	1738	2119
1	1850	2140
1	1843	2141
1	1817	2142
1	1767	2143
1	1710	2144
1	1645	2145
1	1580	2146
1	1516	2147
1	1468	2148
1	1429	2149
1	1407	2150
1	1393	2151
1	1384	2152
1	1395	2153
1	1415	2154
1	1447	2155
1	1478	2156
1	1513	2157
1	1550	2158
1	1586	2159
1	1620	2160
1	1625	2161
1	1625	2162
1	1625	2163
1	1625	2164
1	1615	2165
1	1597	2166
1	1572	2167
1	1549	2168
1	1528	2169
1	1517	2170
1	1517	2171
1	1534	2172
1	1559	2173
1	1593	2174
1	1638	2175
1	1686	2176
1	1735	2177
1	1775	2178
1	1803	2179
1	1770	2120
1	1795	2121
1	1813	2122
1	1812	2123
1	1788	2124
1	1753	2125
1	1710	2126
1	1670	2127
1	1634	2128
1	1609	2129
1	1607	2130
1	1613	2131
1	1628	2132
1	1659	2133
1	1684	2134
1	1723	2135
1	1750	2136
1	1779	2137
1	1817	2138
1	1842	2139
1	1831	2180
1	1841	2181
1	1826	2182
1	1787	2183
1	1739	2184
1	1694	2185
1	1635	2186
1	1582	2187
1	1533	2188
1	1493	2189
1	1466	2190
1	1445	2191
1	1441	2192
1	1459	2193
1	1502	2194
1	1563	2195
1	1641	2196
1	1720	2197
1	1801	2198
1	1882	2199
1	1948	2200
1	2005	2201
1	2057	2202
1	2093	2203
1	2109	2204
1	2123	2205
1	2125	2206
1	2123	2207
1	2129	2208
1	2137	2209
1	2150	2210
1	2160	2211
1	2176	2212
1	2193	2213
1	2206	2214
1	2209	2215
1	2188	2216
1	2158	2217
1	2110	2218
1	2043	2219
1	1959	2220
1	1848	2221
1	1709	2222
1	1555	2223
1	1395	2224
1	1237	2225
1	1096	2226
1	979	2227
1	888	2228
1	837	2229
1	824	2230
1	833	2231
1	859	2232
1	903	2233
1	954	2234
1	1004	2235
1	1058	2236
1	1112	2237
1	1162	2238
1	1180	2239
1	1194	2240
1	1188	2241
1	1166	2242
1	1131	2243
1	1084	2244
1	1035	2245
1	993	2246
1	954	2247
1	929	2248
1	924	2249
1	934	2250
1	956	2251
1	1005	2252
1	1069	2253
1	1153	2254
1	1240	2255
1	1327	2256
1	1413	2257
1	1494	2258
1	1559	2259
1	1611	2260
1	1646	2261
1	1678	2262
1	1695	2263
1	1691	2264
1	1674	2265
1	1647	2266
1	1628	2267
1	1618	2268
1	1608	2269
1	1590	2270
1	1572	2271
1	1571	2272
1	1579	2273
1	1592	2274
1	1615	2275
1	1639	2276
1	1672	2277
1	1696	2278
1	1710	2279
1	1712	2280
1	1703	2281
1	1687	2282
1	1677	2283
1	1664	2284
1	1652	2285
1	1634	2286
1	1623	2287
1	1618	2288
1	1632	2289
1	1647	2290
1	1663	2291
1	1690	2292
1	1718	2293
1	1759	2294
1	1814	2295
1	1856	2296
1	1895	2297
1	1926	2298
1	1947	2299
1	1947	2300
1	1930	2301
1	1899	2302
1	1865	2303
1	1824	2304
1	1772	2305
1	1715	2306
1	1661	2307
1	1610	2308
1	1571	2309
1	1541	2310
1	1532	2311
1	1536	2312
1	1555	2313
1	1582	2314
1	1608	2315
1	1625	2316
1	1643	2317
1	1668	2318
1	1699	2319
1	1729	2320
1	1748	2321
1	1764	2322
1	1773	2323
1	1777	2324
1	1766	2325
1	1760	2326
1	1738	2327
1	1712	2328
1	1687	2329
1	1669	2330
1	1649	2331
1	1646	2332
1	1659	2333
1	1686	2334
1	1724	2335
1	1769	2336
1	1813	2337
1	1844	2338
1	1869	2339
1	1883	2340
1	1878	2341
1	1858	2342
1	1832	2343
1	1798	2344
1	1769	2345
1	1737	2346
1	1699	2347
1	1673	2348
1	1661	2349
1	1661	2350
1	1665	2351
1	1686	2352
1	1718	2353
1	1762	2354
1	1817	2355
1	1860	2356
1	1909	2357
1	1968	2358
1	2026	2359
1	2066	2360
1	2086	2361
1	2084	2362
1	2067	2363
1	2037	2364
1	1993	2365
1	1940	2366
1	1895	2367
1	1854	2368
1	1816	2369
1	1791	2370
1	1778	2371
1	1779	2372
1	1790	2373
1	1811	2374
1	1841	2375
1	1877	2376
1	1910	2377
1	1948	2378
1	1983	2379
1	2022	2380
1	2052	2381
1	2074	2382
1	2088	2383
1	2084	2384
1	2073	2385
1	2042	2386
1	2005	2387
1	1970	2388
1	1942	2389
1	1922	2390
1	1922	2391
1	1935	2392
1	1953	2393
1	1979	2394
1	2013	2395
1	2043	2396
1	2079	2397
1	2117	2398
1	2150	2399
1	2181	2400
1	2188	2401
1	2180	2402
1	2157	2403
1	2127	2404
1	2086	2405
1	2050	2406
1	2019	2407
1	1997	2408
1	1991	2409
1	2007	2410
1	2026	2411
1	2056	2412
1	2094	2413
1	2131	2414
1	2174	2415
1	2201	2416
1	2217	2417
1	2233	2418
1	2222	2419
1	2207	2420
1	2183	2421
1	2157	2422
1	2129	2423
1	2104	2424
1	2074	2425
1	2032	2426
1	1989	2427
1	1947	2428
1	1903	2429
1	1878	2430
1	1859	2431
1	1846	2432
1	1860	2433
1	1870	2434
1	1911	2435
1	1944	2436
1	1978	2437
1	2013	2438
1	2037	2439
1	2052	2440
1	2052	2441
1	2052	2442
1	2039	2443
1	2018	2444
1	1980	2445
1	1936	2446
1	1890	2447
1	1845	2448
1	1811	2449
1	1779	2450
1	1766	2451
1	1767	2452
1	1782	2453
1	1814	2454
1	1847	2455
1	1884	2456
1	1922	2457
1	1957	2458
1	1971	2459
1	1686	2480
1	1713	2481
1	1728	2482
1	1726	2483
1	1712	2484
1	1688	2485
1	1648	2486
1	1607	2487
1	1568	2488
1	1536	2489
1	1517	2490
1	1500	2491
1	1494	2492
1	1503	2493
1	1523	2494
1	1546	2495
1	1580	2496
1	1613	2497
1	1642	2498
1	1660	2499
1	1974	2460
1	1948	2461
1	1913	2462
1	1873	2463
1	1834	2464
1	1786	2465
1	1736	2466
1	1683	2467
1	1626	2468
1	1574	2469
1	1529	2470
1	1485	2471
1	1458	2472
1	1449	2473
1	1453	2474
1	1485	2475
1	1526	2476
1	1569	2477
1	1611	2478
1	1651	2479
1	1665	2500
1	1657	2501
1	1638	2502
1	1611	2503
1	1580	2504
1	1546	2505
1	1508	2506
1	1474	2507
1	1442	2508
1	1420	2509
1	1399	2510
1	1397	2511
1	1404	2512
1	1425	2513
1	1450	2514
1	1476	2515
1	1499	2516
1	1530	2517
1	1566	2518
1	1603	2519
1	1634	2520
1	1644	2521
1	1638	2522
1	1631	2523
1	1616	2524
1	1605	2525
1	1590	2526
1	1567	2527
1	1551	2528
1	1531	2529
1	1517	2530
1	1498	2531
1	1490	2532
1	1500	2533
1	1522	2534
1	1542	2535
1	1557	2536
1	1577	2537
1	1593	2538
1	1611	2539
1	1616	2540
1	1618	2541
1	1618	2542
1	1608	2543
1	1598	2544
1	1582	2545
1	1556	2546
1	1536	2547
1	1517	2548
1	1497	2549
1	1481	2550
1	1479	2551
1	1481	2552
1	1495	2553
1	1523	2554
1	1567	2555
1	1616	2556
1	1662	2557
1	1713	2558
1	1760	2559
1	1697	2580
1	1705	2581
1	1700	2582
1	1684	2583
1	1657	2584
1	1621	2585
1	1581	2586
1	1530	2587
1	1482	2588
1	1448	2589
1	1424	2590
1	1409	2591
1	1412	2592
1	1432	2593
1	1463	2594
1	1504	2595
1	1554	2596
1	1600	2597
1	1646	2598
1	1682	2599
1	1791	2560
1	1802	2561
1	1802	2562
1	1785	2563
1	1749	2564
1	1712	2565
1	1662	2566
1	1609	2567
1	1564	2568
1	1531	2569
1	1514	2570
1	1503	2571
1	1499	2572
1	1503	2573
1	1524	2574
1	1555	2575
1	1584	2576
1	1619	2577
1	1648	2578
1	1670	2579
1	1697	2600
1	1698	2601
1	1688	2602
1	1665	2603
1	1629	2604
1	1579	2605
1	1521	2606
1	1476	2607
1	1445	2608
1	1430	2609
1	1442	2610
1	1476	2611
1	1518	2612
1	1567	2613
1	1616	2614
1	1662	2615
1	1710	2616
1	1753	2617
1	1796	2618
1	1836	2619
1	1843	2620
1	1817	2621
1	1773	2622
1	1718	2623
1	1657	2624
1	1589	2625
1	1518	2626
1	1454	2627
1	1409	2628
1	1372	2629
1	1364	2630
1	1372	2631
1	1409	2632
1	1460	2633
1	1517	2634
1	1577	2635
1	1624	2636
1	1661	2637
1	1687	2638
1	1701	2639
1	1701	2640
1	1686	2641
1	1660	2642
1	1634	2643
1	1607	2644
1	1600	2645
1	1593	2646
1	1587	2647
1	1585	2648
1	1587	2649
1	1587	2650
1	1582	2651
1	1585	2652
1	1598	2653
1	1618	2654
1	1647	2655
1	1662	2656
1	1686	2657
1	1710	2658
1	1731	2659
1	1751	2660
1	1760	2661
1	1752	2662
1	1731	2663
1	1709	2664
1	1684	2665
1	1647	2666
1	1611	2667
1	1581	2668
1	1555	2669
1	1546	2670
1	1551	2671
1	1566	2672
1	1590	2673
1	1618	2674
1	1644	2675
1	1668	2676
1	1695	2677
1	1725	2678
1	1754	2679
1	1779	2680
1	1795	2681
1	1813	2682
1	1818	2683
1	1817	2684
1	1818	2685
1	1814	2686
1	1809	2687
1	1793	2688
1	1778	2689
1	1762	2690
1	1744	2691
1	1736	2692
1	1721	2693
1	1715	2694
1	1715	2695
1	1714	2696
1	1720	2697
1	1724	2698
1	1715	2699
1	1705	2700
1	1678	2701
1	1635	2702
1	1581	2703
1	1508	2704
1	1443	2705
1	1398	2706
1	1363	2707
1	1346	2708
1	1348	2709
1	1370	2710
1	1399	2711
1	1437	2712
1	1487	2713
1	1543	2714
1	1616	2715
1	1686	2716
1	1753	2717
1	1814	2718
1	1856	2719
1	1877	2720
1	1875	2721
1	1863	2722
1	1841	2723
1	1798	2724
1	1756	2725
1	1706	2726
1	1660	2727
1	1609	2728
1	1561	2729
1	1529	2730
1	1503	2731
1	1490	2732
1	1503	2733
1	1517	2734
1	1547	2735
1	1561	2736
1	1578	2737
1	1594	2738
1	1607	2739
1	1612	2740
1	1600	2741
1	1571	2742
1	1524	2743
1	1462	2744
1	1399	2745
1	1346	2746
1	1319	2747
1	1305	2748
1	1309	2749
1	1330	2750
1	1353	2751
1	1384	2752
1	1430	2753
1	1479	2754
1	1527	2755
1	1561	2756
1	1597	2757
1	1634	2758
1	1680	2759
1	1730	2760
1	1766	2761
1	1800	2762
1	1827	2763
1	1843	2764
1	1848	2765
1	1856	2766
1	1857	2767
1	1863	2768
1	1878	2769
1	1908	2770
1	1937	2771
1	1989	2772
1	2052	2773
1	2121	2774
1	2196	2775
1	2260	2776
1	2306	2777
1	2336	2778
1	2341	2779
1	2314	2780
1	2261	2781
1	2174	2782
1	2078	2783
1	1962	2784
1	1839	2785
1	1694	2786
1	1557	2787
1	1424	2788
1	1297	2789
1	1190	2790
1	1099	2791
1	1026	2792
1	965	2793
1	927	2794
1	905	2795
1	889	2796
1	879	2797
1	874	2798
1	876	2799
1	886	2800
1	887	2801
1	886	2802
1	876	2803
1	861	2804
1	846	2805
1	829	2806
1	822	2807
1	830	2808
1	847	2809
1	872	2810
1	909	2811
1	958	2812
1	1022	2813
1	1093	2814
1	1170	2815
1	1241	2816
1	1316	2817
1	1392	2818
1	1453	2819
1	1505	2820
1	1539	2821
1	1554	2822
1	1554	2823
1	1536	2824
1	1508	2825
1	1478	2826
1	1449	2827
1	1424	2828
1	1417	2829
1	1419	2830
1	1425	2831
1	1446	2832
1	1478	2833
1	1518	2834
1	1555	2835
1	1590	2836
1	1623	2837
1	1657	2838
1	1687	2839
1	1703	2840
1	1706	2841
1	1693	2842
1	1668	2843
1	1634	2844
1	1584	2845
1	1531	2846
1	1489	2847
1	1460	2848
1	1445	2849
1	1437	2850
1	1436	2851
1	1442	2852
1	1464	2853
1	1508	2854
1	1574	2855
1	1639	2856
1	1700	2857
1	1754	2858
1	1800	2859
1	1835	2860
1	1841	2861
1	1830	2862
1	1800	2863
1	1759	2864
1	1712	2865
1	1661	2866
1	1607	2867
1	1557	2868
1	1521	2869
1	1503	2870
1	1494	2871
1	1498	2872
1	1514	2873
1	1539	2874
1	1563	2875
1	1576	2876
1	1594	2877
1	1609	2878
1	1625	2879
1	1644	2880
1	1660	2881
1	1669	2882
1	1665	2883
1	1652	2884
1	1629	2885
1	1598	2886
1	1571	2887
1	1554	2888
1	1542	2889
1	1542	2890
1	1550	2891
1	1569	2892
1	1602	2893
1	1643	2894
1	1687	2895
1	1723	2896
1	1754	2897
1	1779	2898
1	1801	2899
1	1819	2900
1	1826	2901
1	1823	2902
1	1814	2903
1	1787	2904
1	1751	2905
1	1700	2906
1	1652	2907
1	1607	2908
1	1562	2909
1	1529	2910
1	1503	2911
1	1490	2912
1	1489	2913
1	1503	2914
1	1530	2915
1	1568	2916
1	1611	2917
1	1660	2918
1	1707	2919
1	1752	2920
1	1777	2921
1	1793	2922
1	1793	2923
1	1785	2924
1	1773	2925
1	1755	2926
1	1738	2927
1	1724	2928
1	1710	2929
1	1697	2930
1	1688	2931
1	1700	2932
1	1731	2933
1	1765	2934
1	1816	2935
1	1856	2936
1	1899	2937
1	1935	2938
1	1971	2939
1	1999	2940
1	2013	2941
1	2014	2942
1	2001	2943
1	1976	2944
1	1962	2945
1	1932	2946
1	1901	2947
1	1869	2948
1	1843	2949
1	1819	2950
1	1813	2951
1	1817	2952
1	1827	2953
1	1836	2954
1	1854	2955
1	1869	2956
1	1891	2957
1	1911	2958
1	1935	2959
1	1953	2960
1	1961	2961
1	1963	2962
1	1959	2963
1	1940	2964
1	1905	2965
1	1865	2966
1	1834	2967
1	1801	2968
1	1780	2969
1	1770	2970
1	1769	2971
1	1777	2972
1	1796	2973
1	1843	2974
1	1893	2975
1	1946	2976
1	1994	2977
1	2032	2978
1	2061	2979
1	2025	3000
1	1990	3001
1	1945	3002
1	1886	3003
1	1830	3004
1	1777	3005
1	1736	3006
1	1697	3007
1	1669	3008
1	1659	3009
1	1662	3010
1	1680	3011
1	1707	3012
1	1737	3013
1	1764	3014
1	1791	3015
1	1803	3016
1	1818	3017
1	1831	3018
1	1835	3019
1	2078	2980
1	2077	2981
1	2070	2982
1	2060	2983
1	2040	2984
1	2018	2985
1	1985	2986
1	1953	2987
1	1922	2988
1	1911	2989
1	1908	2990
1	1913	2991
1	1931	2992
1	1962	2993
1	1999	2994
1	2035	2995
1	2057	2996
1	2068	2997
1	2065	2998
1	2043	2999
1	1837	3020
1	1832	3021
1	1825	3022
1	1802	3023
1	1767	3024
1	1728	3025
1	1674	3026
1	1628	3027
1	1592	3028
1	1571	3029
1	1566	3030
1	1559	3031
1	1562	3032
1	1596	3033
1	1631	3034
1	1674	3035
1	1712	3036
1	1756	3037
1	1796	3038
1	1829	3039
1	1843	3040
1	1834	3041
1	1809	3042
1	1764	3043
1	1724	3044
1	1684	3045
1	1638	3046
1	1594	3047
1	1555	3048
1	1530	3049
1	1529	3050
1	1528	3051
1	1531	3052
1	1555	3053
1	1590	3054
1	1633	3055
1	1670	3056
1	1710	3057
1	1746	3058
1	1779	3059
1	1809	3060
1	1797	3061
1	1769	3062
1	1733	3063
1	1683	3064
1	1631	3065
1	1581	3066
1	1539	3067
1	1507	3068
1	1492	3069
1	1495	3070
1	1507	3071
1	1535	3072
1	1580	3073
1	1629	3074
1	1677	3075
1	1703	3076
1	1718	3077
1	1723	3078
1	1722	3079
1	1713	3080
1	1698	3081
1	1679	3082
1	1655	3083
1	1625	3084
1	1589	3085
1	1549	3086
1	1513	3087
1	1485	3088
1	1472	3089
1	1467	3090
1	1467	3091
1	1475	3092
1	1490	3093
1	1516	3094
1	1544	3095
1	1580	3096
1	1607	3097
1	1633	3098
1	1647	3099
1	1655	3100
1	1656	3101
1	1659	3102
1	1656	3103
1	1644	3104
1	1634	3105
1	1611	3106
1	1593	3107
1	1579	3108
1	1566	3109
1	1564	3110
1	1569	3111
1	1581	3112
1	1599	3113
1	1632	3114
1	1674	3115
1	1718	3116
1	1762	3117
1	1792	3118
1	1819	3119
1	1830	3120
1	1803	3121
1	1755	3122
1	1692	3123
1	1625	3124
1	1558	3125
1	1507	3126
1	1471	3127
1	1443	3128
1	1430	3129
1	1425	3130
1	1437	3131
1	1450	3132
1	1468	3133
1	1481	3134
1	1503	3135
1	1523	3136
1	1547	3137
1	1572	3138
1	1598	3139
1	1610	3140
1	1607	3141
1	1593	3142
1	1566	3143
1	1536	3144
1	1505	3145
1	1474	3146
1	1437	3147
1	1409	3148
1	1382	3149
1	1377	3150
1	1382	3151
1	1411	3152
1	1450	3153
1	1500	3154
1	1548	3155
1	1593	3156
1	1634	3157
1	1662	3158
1	1684	3159
1	1686	3160
1	1667	3161
1	1643	3162
1	1607	3163
1	1563	3164
1	1524	3165
1	1476	3166
1	1427	3167
1	1382	3168
1	1356	3169
1	1346	3170
1	1354	3171
1	1373	3172
1	1415	3173
1	1456	3174
1	1503	3175
1	1548	3176
1	1589	3177
1	1621	3178
1	1644	3179
1	1667	3180
1	1680	3181
1	1688	3182
1	1683	3183
1	1659	3184
1	1613	3185
1	1566	3186
1	1517	3187
1	1472	3188
1	1433	3189
1	1409	3190
1	1398	3191
1	1405	3192
1	1424	3193
1	1450	3194
1	1490	3195
1	1529	3196
1	1576	3197
1	1617	3198
1	1647	3199
1	1656	3200
1	1641	3201
1	1607	3202
1	1566	3203
1	1524	3204
1	1485	3205
1	1449	3206
1	1417	3207
1	1384	3208
1	1368	3209
1	1369	3210
1	1379	3211
1	1405	3212
1	1440	3213
1	1482	3214
1	1529	3215
1	1569	3216
1	1607	3217
1	1638	3218
1	1672	3219
1	1645	3240
1	1647	3241
1	1646	3242
1	1626	3243
1	1604	3244
1	1575	3245
1	1550	3246
1	1531	3247
1	1529	3248
1	1530	3249
1	1546	3250
1	1568	3251
1	1589	3252
1	1609	3253
1	1633	3254
1	1658	3255
1	1678	3256
1	1692	3257
1	1702	3258
1	1698	3259
1	1694	3220
1	1697	3221
1	1698	3222
1	1683	3223
1	1656	3224
1	1628	3225
1	1590	3226
1	1555	3227
1	1510	3228
1	1472	3229
1	1439	3230
1	1427	3231
1	1425	3232
1	1442	3233
1	1472	3234
1	1508	3235
1	1544	3236
1	1582	3237
1	1608	3238
1	1628	3239
1	1686	3260
1	1667	3261
1	1641	3262
1	1608	3263
1	1575	3264
1	1536	3265
1	1490	3266
1	1449	3267
1	1406	3268
1	1368	3269
1	1346	3270
1	1342	3271
1	1348	3272
1	1376	3273
1	1421	3274
1	1455	3275
1	1485	3276
1	1513	3277
1	1539	3278
1	1555	3279
1	1563	3280
1	1559	3281
1	1561	3282
1	1555	3283
1	1533	3284
1	1512	3285
1	1476	3286
1	1440	3287
1	1415	3288
1	1395	3289
1	1383	3290
1	1391	3291
1	1405	3292
1	1439	3293
1	1484	3294
1	1539	3295
1	1582	3296
1	1631	3297
1	1665	3298
1	1698	3299
1	1725	3300
1	1738	3301
1	1738	3302
1	1731	3303
1	1713	3304
1	1685	3305
1	1646	3306
1	1610	3307
1	1580	3308
1	1545	3309
1	1507	3310
1	1476	3311
1	1461	3312
1	1462	3313
1	1476	3314
1	1507	3315
1	1539	3316
1	1566	3317
1	1585	3318
1	1604	3319
1	2106	3340
1	2156	3341
1	2186	3342
1	2196	3343
1	2183	3344
1	2163	3345
1	2133	3346
1	2100	3347
1	2055	3348
1	2002	3349
1	1948	3350
1	1886	3351
1	1823	3352
1	1764	3353
1	1711	3354
1	1661	3355
1	1607	3356
1	1555	3357
1	1503	3358
1	1445	3359
1	1616	3320
1	1622	3321
1	1611	3322
1	1593	3323
1	1562	3324
1	1528	3325
1	1481	3326
1	1449	3327
1	1424	3328
1	1420	3329
1	1429	3330
1	1450	3331
1	1489	3332
1	1543	3333
1	1612	3334
1	1693	3335
1	1786	3336
1	1870	3337
1	1961	3338
1	2041	3339
1	1391	3360
1	1333	3361
1	1278	3362
1	1213	3363
1	1147	3364
1	1088	3365
1	1039	3366
1	999	3367
1	953	3368
1	922	3369
1	901	3370
1	888	3371
1	895	3372
1	914	3373
1	948	3374
1	994	3375
1	1024	3376
1	1058	3377
1	1101	3378
1	1147	3379
1	1187	3380
1	1209	3381
1	1215	3382
1	1213	3383
1	1201	3384
1	1186	3385
1	1171	3386
1	1167	3387
1	1173	3388
1	1184	3389
1	1215	3390
1	1258	3391
1	1312	3392
1	1374	3393
1	1443	3394
1	1506	3395
1	1566	3396
1	1616	3397
1	1646	3398
1	1658	3399
1	1660	3400
1	1644	3401
1	1633	3402
1	1613	3403
1	1590	3404
1	1573	3405
1	1556	3406
1	1553	3407
1	1555	3408
1	1560	3409
1	1561	3410
1	1559	3411
1	1570	3412
1	1582	3413
1	1613	3414
1	1644	3415
1	1676	3416
1	1711	3417
1	1741	3418
1	1764	3419
1	1775	3440
1	1772	3441
1	1750	3442
1	1710	3443
1	1661	3444
1	1620	3445
1	1583	3446
1	1553	3447
1	1529	3448
1	1499	3449
1	1476	3450
1	1471	3451
1	1481	3452
1	1508	3453
1	1544	3454
1	1582	3455
1	1633	3456
1	1685	3457
1	1732	3458
1	1767	3459
1	1785	3420
1	1790	3421
1	1777	3422
1	1752	3423
1	1715	3424
1	1682	3425
1	1648	3426
1	1626	3427
1	1612	3428
1	1607	3429
1	1594	3430
1	1593	3431
1	1597	3432
1	1604	3433
1	1620	3434
1	1643	3435
1	1671	3436
1	1699	3437
1	1738	3438
1	1764	3439
1	1790	3460
1	1796	3461
1	1790	3462
1	1760	3463
1	1717	3464
1	1686	3465
1	1652	3466
1	1613	3467
1	1577	3468
1	1552	3469
1	1541	3470
1	1536	3471
1	1534	3472
1	1543	3473
1	1558	3474
1	1576	3475
1	1597	3476
1	1629	3477
1	1655	3478
1	1681	3479
1	1712	3480
1	1729	3481
1	1734	3482
1	1723	3483
1	1712	3484
1	1700	3485
1	1688	3486
1	1673	3487
1	1661	3488
1	1650	3489
1	1629	3490
1	1616	3491
1	1613	3492
1	1620	3493
1	1634	3494
1	1671	3495
1	1712	3496
1	1763	3497
1	1809	3498
1	1843	3499
1	1856	3500
1	1854	3501
1	1838	3502
1	1803	3503
1	1764	3504
1	1724	3505
1	1688	3506
1	1657	3507
1	1628	3508
1	1607	3509
1	1608	3510
1	1625	3511
1	1647	3512
1	1688	3513
1	1737	3514
1	1791	3515
1	1849	3516
1	1895	3517
1	1926	3518
1	1947	3519
1	2015	3540
1	2030	3541
1	2027	3542
1	2007	3543
1	1976	3544
1	1948	3545
1	1909	3546
1	1869	3547
1	1846	3548
1	1837	3549
1	1831	3550
1	1839	3551
1	1851	3552
1	1865	3553
1	1869	3554
1	1875	3555
1	1859	3556
1	1842	3557
1	1818	3558
1	1796	3559
1	1947	3520
1	1948	3521
1	1946	3522
1	1922	3523
1	1887	3524
1	1857	3525
1	1824	3526
1	1791	3527
1	1762	3528
1	1734	3529
1	1710	3530
1	1699	3531
1	1699	3532
1	1715	3533
1	1740	3534
1	1785	3535
1	1839	3536
1	1891	3537
1	1945	3538
1	1983	3539
1	1841	3580
1	1817	3581
1	1791	3582
1	1762	3583
1	1727	3584
1	1708	3585
1	1675	3586
1	1633	3587
1	1582	3588
1	1535	3589
1	1501	3590
1	1487	3591
1	1492	3592
1	1512	3593
1	1547	3594
1	1586	3595
1	1629	3596
1	1664	3597
1	1695	3598
1	1710	3599
1	1780	3560
1	1757	3561
1	1728	3562
1	1690	3563
1	1648	3564
1	1613	3565
1	1592	3566
1	1574	3567
1	1569	3568
1	1581	3569
1	1616	3570
1	1652	3571
1	1690	3572
1	1729	3573
1	1764	3574
1	1809	3575
1	1841	3576
1	1859	3577
1	1867	3578
1	1857	3579
1	1715	3600
1	1696	3601
1	1660	3602
1	1611	3603
1	1560	3604
1	1514	3605
1	1472	3606
1	1427	3607
1	1391	3608
1	1354	3609
1	1332	3610
1	1328	3611
1	1343	3612
1	1372	3613
1	1409	3614
1	1454	3615
1	1490	3616
1	1524	3617
1	1548	3618
1	1574	3619
1	1602	3620
1	1622	3621
1	1621	3622
1	1599	3623
1	1566	3624
1	1517	3625
1	1464	3626
1	1410	3627
1	1350	3628
1	1296	3629
1	1267	3630
1	1243	3631
1	1235	3632
1	1254	3633
1	1279	3634
1	1320	3635
1	1355	3636
1	1384	3637
1	1419	3638
1	1439	3639
1	1450	3640
1	1451	3641
1	1442	3642
1	1415	3643
1	1371	3644
1	1323	3645
1	1278	3646
1	1233	3647
1	1193	3648
1	1175	3649
1	1175	3650
1	1188	3651
1	1206	3652
1	1239	3653
1	1289	3654
1	1345	3655
1	1410	3656
1	1469	3657
1	1520	3658
1	1558	3659
1	1592	3660
1	1603	3661
1	1598	3662
1	1580	3663
1	1558	3664
1	1553	3665
1	1533	3666
1	1510	3667
1	1486	3668
1	1466	3669
1	1458	3670
1	1473	3671
1	1492	3672
1	1520	3673
1	1541	3674
1	1569	3675
1	1584	3676
1	1595	3677
1	1604	3678
1	1592	3679
1	1566	3700
1	1574	3701
1	1567	3702
1	1542	3703
1	1507	3704
1	1478	3705
1	1437	3706
1	1390	3707
1	1346	3708
1	1327	3709
1	1320	3710
1	1324	3711
1	1337	3712
1	1358	3713
1	1391	3714
1	1422	3715
1	1459	3716
1	1497	3717
1	1529	3718
1	1541	3719
1	1579	3680
1	1550	3681
1	1514	3682
1	1463	3683
1	1400	3684
1	1333	3685
1	1278	3686
1	1233	3687
1	1203	3688
1	1188	3689
1	1196	3690
1	1211	3691
1	1236	3692
1	1269	3693
1	1305	3694
1	1346	3695
1	1396	3696
1	1445	3697
1	1499	3698
1	1542	3699
1	1553	3720
1	1553	3721
1	1544	3722
1	1529	3723
1	1502	3724
1	1462	3725
1	1413	3726
1	1353	3727
1	1318	3728
1	1293	3729
1	1297	3730
1	1321	3731
1	1361	3732
1	1410	3733
1	1458	3734
1	1502	3735
1	1537	3736
1	1557	3737
1	1574	3738
1	1582	3739
1	1577	3740
1	1561	3741
1	1542	3742
1	1503	3743
1	1453	3744
1	1397	3745
1	1332	3746
1	1279	3747
1	1238	3748
1	1215	3749
1	1215	3750
1	1224	3751
1	1246	3752
1	1283	3753
1	1322	3754
1	1366	3755
1	1413	3756
1	1454	3757
1	1493	3758
1	1525	3759
1	1541	3760
1	1548	3761
1	1546	3762
1	1538	3763
1	1520	3764
1	1514	3765
1	1493	3766
1	1466	3767
1	1449	3768
1	1446	3769
1	1458	3770
1	1481	3771
1	1504	3772
1	1534	3773
1	1566	3774
1	1589	3775
1	1606	3776
1	1611	3777
1	1607	3778
1	1593	3779
1	1580	3780
1	1555	3781
1	1524	3782
1	1476	3783
1	1422	3784
1	1364	3785
1	1316	3786
1	1269	3787
1	1234	3788
1	1212	3789
1	1201	3790
1	1215	3791
1	1255	3792
1	1312	3793
1	1373	3794
1	1456	3795
1	1524	3796
1	1568	3797
1	1589	3798
1	1584	3799
1	1555	3800
1	1514	3801
1	1474	3802
1	1437	3803
1	1409	3804
1	1372	3805
1	1346	3806
1	1323	3807
1	1307	3808
1	1302	3809
1	1319	3810
1	1343	3811
1	1373	3812
1	1423	3813
1	1476	3814
1	1531	3815
1	1586	3816
1	1631	3817
1	1660	3818
1	1685	3819
1	1647	3840
1	1607	3841
1	1562	3842
1	1509	3843
1	1458	3844
1	1409	3845
1	1355	3846
1	1309	3847
1	1267	3848
1	1236	3849
1	1215	3850
1	1209	3851
1	1220	3852
1	1251	3853
1	1295	3854
1	1369	3855
1	1436	3856
1	1499	3857
1	1555	3858
1	1603	3859
1	1686	3820
1	1682	3821
1	1670	3822
1	1652	3823
1	1625	3824
1	1606	3825
1	1573	3826
1	1541	3827
1	1516	3828
1	1503	3829
1	1503	3830
1	1529	3831
1	1559	3832
1	1596	3833
1	1632	3834
1	1661	3835
1	1687	3836
1	1699	3837
1	1699	3838
1	1679	3839
1	1642	3860
1	1664	3861
1	1663	3862
1	1647	3863
1	1611	3864
1	1566	3865
1	1529	3866
1	1501	3867
1	1477	3868
1	1453	3869
1	1449	3870
1	1437	3871
1	1434	3872
1	1435	3873
1	1445	3874
1	1456	3875
1	1476	3876
1	1490	3877
1	1501	3878
1	1506	3879
1	1504	3880
1	1506	3881
1	1503	3882
1	1487	3883
1	1456	3884
1	1436	3885
1	1404	3886
1	1377	3887
1	1361	3888
1	1356	3889
1	1364	3890
1	1384	3891
1	1421	3892
1	1450	3893
1	1485	3894
1	1512	3895
1	1536	3896
1	1558	3897
1	1576	3898
1	1580	3899
1	1590	3900
1	1586	3901
1	1581	3902
1	1560	3903
1	1541	3904
1	1524	3905
1	1503	3906
1	1488	3907
1	1489	3908
1	1508	3909
1	1540	3910
1	1574	3911
1	1618	3912
1	1683	3913
1	1763	3914
1	1866	3915
1	1957	3916
1	2044	3917
1	2123	3918
1	2191	3919
1	974	3940
1	955	3941
1	941	3942
1	923	3943
1	896	3944
1	857	3945
1	806	3946
1	758	3947
1	718	3948
1	689	3949
1	666	3950
1	665	3951
1	672	3952
1	694	3953
1	738	3954
1	800	3955
1	882	3956
1	957	3957
1	1027	3958
1	1086	3959
1	2251	3920
1	2287	3921
1	2299	3922
1	2286	3923
1	2242	3924
1	2163	3925
1	2064	3926
1	1940	3927
1	1808	3928
1	1660	3929
1	1533	3930
1	1411	3931
1	1296	3932
1	1207	3933
1	1130	3934
1	1079	3935
1	1033	3936
1	1013	3937
1	997	3938
1	983	3939
1	1152	3960
1	1194	3961
1	1229	3962
1	1253	3963
1	1269	3964
1	1282	3965
1	1288	3966
1	1299	3967
1	1321	3968
1	1347	3969
1	1375	3970
1	1409	3971
1	1441	3972
1	1478	3973
1	1520	3974
1	1553	3975
1	1566	3976
1	1580	3977
1	1581	3978
1	1574	3979
1	1555	3980
1	1535	3981
1	1516	3982
1	1497	3983
1	1477	3984
1	1450	3985
1	1426	3986
1	1404	3987
1	1382	3988
1	1377	3989
1	1398	3990
1	1423	3991
1	1456	3992
1	1503	3993
1	1556	3994
1	1609	3995
1	1651	3996
1	1670	3997
1	1677	3998
1	1675	3999
1	1659	4000
1	1643	4001
1	1626	4002
1	1606	4003
1	1580	4004
1	1557	4005
1	1530	4006
1	1506	4006
1	1487	4008
1	1477	4009
1	1481	4010
1	1503	4011
1	1534	4012
1	1577	4013
1	1628	4014
1	1679	4014
1	1733	4016
1	1778	4017
1	1811	4018
1	1816	4019
1	1803	4020
1	1768	4021
1	1721	4022
1	1670	4022
1	1620	4024
1	1580	4025
1	1547	4026
1	1523	4027
1	1503	4028
1	1494	4029
1	1489	4030
1	1494	4030
1	1520	4032
1	1566	4033
1	1621	4034
1	1672	4035
1	1724	4036
1	1765	4037
1	1796	4038
1	1818	4038
1	1782	4060
1	1772	4061
1	1753	4062
1	1729	4062
1	1694	4064
1	1665	4065
1	1634	4066
1	1605	4067
1	1581	4068
1	1571	4069
1	1564	4070
1	1579	4070
1	1608	4072
1	1653	4073
1	1709	4074
1	1770	4075
1	1849	4076
1	1921	4077
1	1976	4078
1	2017	4078
1	2047	4080
1	2052	4081
1	2047	4082
1	2025	4083
1	1986	4084
1	1939	4085
1	1890	4086
1	1841	4086
1	1796	4088
1	1770	4089
1	1749	4090
1	1742	4091
1	1751	4092
1	1764	4093
1	1787	4094
1	1826	4094
1	1865	4096
1	1896	4097
1	1927	4098
1	1952	4099
1	1817	4040
1	1791	4041
1	1751	4042
1	1698	4043
1	1639	4044
1	1575	4045
1	1520	4046
1	1475	4046
1	1432	4048
1	1409	4049
1	1415	4050
1	1436	4051
1	1472	4052
1	1521	4053
1	1578	4054
1	1633	4054
1	1684	4056
1	1730	4057
1	1762	4058
1	1779	4059
1	1974	4100
1	1988	4101
1	1989	4102
1	1985	4103
1	1974	4104
1	1952	4105
1	1932	4106
1	1904	4107
1	1874	4108
1	1852	4109
1	1841	4110
1	1832	4111
1	1842	4112
1	1862	4113
1	1896	4114
1	1931	4115
1	1953	4116
1	1965	4117
1	1973	4118
1	1974	4119
1	1962	4120
1	1956	4121
1	1940	4122
1	1910	4123
1	1875	4124
1	1850	4125
1	1826	4126
1	1803	4127
1	1791	4128
1	1788	4129
1	1785	4130
1	1800	4131
1	1834	4132
1	1872	4133
1	1920	4134
1	1957	4135
1	1995	4136
1	2017	4137
1	2022	4138
1	2023	4139
1	2014	4140
1	2004	4141
1	2002	4142
1	2007	4143
1	2013	4144
1	2001	4145
1	1980	4146
1	1949	4147
1	1918	4148
1	1890	4149
1	1859	4150
1	1843	4151
1	1821	4152
1	1798	4153
1	1791	4154
1	1799	4155
1	1817	4156
1	1829	4157
1	1836	4158
1	1832	4159
1	1816	4160
1	1791	4161
1	1765	4162
1	1741	4163
1	1712	4164
1	1677	4165
1	1643	4166
1	1617	4167
1	1598	4168
1	1585	4169
1	1586	4170
1	1595	4171
1	1607	4172
1	1634	4173
1	1660	4174
1	1687	4175
1	1707	4176
1	1712	4177
1	1707	4178
1	1698	4179
1	1679	4180
1	1661	4181
1	1634	4182
1	1596	4183
1	1560	4184
1	1530	4185
1	1502	4186
1	1478	4187
1	1475	4188
1	1482	4189
1	1516	4190
1	1551	4191
1	1580	4192
1	1600	4193
1	1615	4194
1	1620	4195
1	1633	4196
1	1643	4197
1	1652	4198
1	1661	4199
1	1674	4200
1	1674	4201
1	1657	4202
1	1633	4203
1	1595	4204
1	1556	4205
1	1525	4206
1	1497	4207
1	1469	4208
1	1451	4209
1	1446	4210
1	1449	4211
1	1463	4212
1	1481	4213
1	1505	4214
1	1541	4215
1	1575	4216
1	1608	4217
1	1636	4218
1	1652	4219
1	1652	4220
1	1636	4221
1	1606	4222
1	1563	4223
1	1513	4224
1	1461	4225
1	1416	4226
1	1372	4227
1	1337	4228
1	1317	4229
1	1320	4230
1	1339	4231
1	1370	4232
1	1433	4233
1	1503	4234
1	1567	4235
1	1634	4236
1	1687	4237
1	1729	4238
1	1751	4239
1	1634	4260
1	1641	4261
1	1628	4262
1	1594	4263
1	1544	4264
1	1488	4265
1	1436	4266
1	1397	4267
1	1373	4268
1	1372	4269
1	1373	4270
1	1398	4271
1	1430	4272
1	1472	4273
1	1517	4274
1	1566	4275
1	1603	4276
1	1629	4277
1	1644	4278
1	1660	4279
1	1753	4240
1	1739	4241
1	1712	4242
1	1677	4243
1	1643	4244
1	1611	4245
1	1569	4246
1	1527	4247
1	1485	4248
1	1451	4249
1	1428	4250
1	1407	4251
1	1402	4252
1	1412	4253
1	1433	4254
1	1458	4255
1	1497	4256
1	1538	4257
1	1576	4258
1	1607	4259
1	1793	4300
1	1751	4301
1	1694	4302
1	1625	4303
1	1550	4304
1	1479	4305
1	1409	4306
1	1346	4307
1	1302	4308
1	1281	4309
1	1281	4310
1	1304	4311
1	1346	4312
1	1407	4313
1	1477	4314
1	1554	4315
1	1621	4316
1	1675	4317
1	1712	4318
1	1729	4319
1	1673	4280
1	1677	4281
1	1661	4282
1	1641	4283
1	1612	4284
1	1575	4285
1	1542	4286
1	1515	4287
1	1498	4288
1	1490	4289
1	1500	4290
1	1520	4291
1	1557	4292
1	1611	4293
1	1669	4294
1	1721	4295
1	1766	4296
1	1800	4297
1	1821	4298
1	1824	4299
1	1720	4320
1	1708	4321
1	1674	4322
1	1633	4323
1	1581	4324
1	1527	4325
1	1477	4326
1	1445	4327
1	1425	4328
1	1415	4329
1	1409	4330
1	1410	4331
1	1424	4332
1	1441	4333
1	1476	4334
1	1520	4335
1	1571	4336
1	1617	4337
1	1657	4338
1	1688	4339
1	1698	4340
1	1697	4341
1	1686	4342
1	1669	4343
1	1646	4344
1	1610	4345
1	1582	4346
1	1564	4347
1	1553	4348
1	1548	4349
1	1559	4350
1	1577	4351
1	1600	4352
1	1625	4353
1	1647	4354
1	1664	4355
1	1677	4356
1	1678	4357
1	1670	4358
1	1649	4359
1	1621	4360
1	1597	4361
1	1567	4362
1	1536	4363
1	1508	4364
1	1492	4365
1	1477	4366
1	1474	4367
1	1483	4368
1	1508	4369
1	1541	4370
1	1570	4371
1	1606	4372
1	1644	4373
1	1692	4374
1	1728	4375
1	1764	4376
1	1800	4377
1	1824	4378
1	1826	4379
1	1814	4380
1	1776	4381
1	1730	4382
1	1667	4383
1	1594	4384
1	1521	4385
1	1450	4386
1	1394	4387
1	1355	4388
1	1335	4389
1	1343	4390
1	1364	4391
1	1408	4392
1	1456	4393
1	1513	4394
1	1575	4395
1	1633	4396
1	1686	4397
1	1729	4398
1	1762	4399
1	1773	4400
1	1773	4401
1	1759	4402
1	1733	4403
1	1699	4404
1	1664	4405
1	1631	4406
1	1602	4407
1	1580	4408
1	1566	4409
1	1577	4410
1	1596	4411
1	1633	4412
1	1669	4413
1	1712	4414
1	1757	4415
1	1799	4416
1	1835	4417
1	1856	4418
1	1869	4419
1	1869	4420
1	1844	4421
1	1799	4422
1	1742	4423
1	1685	4424
1	1633	4425
1	1581	4426
1	1532	4427
1	1495	4428
1	1475	4429
1	1458	4430
1	1462	4431
1	1482	4432
1	1521	4433
1	1560	4434
1	1599	4435
1	1642	4436
1	1685	4437
1	1723	4438
1	1747	4439
1	1751	4440
1	1737	4441
1	1710	4442
1	1677	4443
1	1646	4444
1	1610	4445
1	1573	4446
1	1543	4447
1	1527	4448
1	1527	4449
1	1533	4450
1	1553	4451
1	1586	4452
1	1636	4453
1	1693	4454
1	1739	4455
1	1762	4456
1	1767	4457
1	1764	4458
1	1755	4459
1	1707	4480
1	1705	4481
1	1697	4482
1	1678	4483
1	1648	4484
1	1628	4485
1	1605	4486
1	1592	4487
1	1586	4488
1	1605	4489
1	1640	4490
1	1699	4491
1	1764	4492
1	1849	4493
1	1934	4494
1	2025	4495
1	2118	4496
1	2210	4497
1	2304	4498
1	2381	4499
1	1744	4460
1	1732	4461
1	1713	4462
1	1688	4463
1	1655	4464
1	1604	4465
1	1548	4466
1	1494	4467
1	1450	4468
1	1424	4469
1	1424	4470
1	1442	4471
1	1481	4472
1	1525	4473
1	1569	4474
1	1607	4475
1	1643	4476
1	1665	4477
1	1688	4478
1	1705	4479
1	2445	4500
1	2482	4501
1	2495	4502
1	2489	4503
1	2463	4504
1	2415	4505
1	2345	4506
1	2269	4507
1	2188	4508
1	2105	4509
1	2004	4510
1	1901	4511
1	1796	4512
1	1701	4513
1	1607	4514
1	1508	4515
1	1405	4516
1	1294	4517
1	1202	4518
1	1134	4519
1	1077	4520
1	1022	4521
1	965	4522
1	916	4523
1	870	4524
1	823	4525
1	778	4526
1	742	4527
1	723	4528
1	721	4529
1	743	4530
1	775	4531
1	822	4532
1	878	4533
1	941	4534
1	1003	4535
1	1060	4536
1	1111	4537
1	1155	4538
1	1188	4539
1	1201	4540
1	1206	4541
1	1204	4542
1	1197	4543
1	1194	4544
1	1206	4545
1	1226	4546
1	1249	4547
1	1283	4548
1	1332	4549
1	1382	4550
1	1448	4551
1	1517	4552
1	1596	4553
1	1675	4554
1	1747	4555
1	1817	4556
1	1868	4557
1	1901	4558
1	1916	4559
1	1908	4560
1	1871	4561
1	1824	4562
1	1764	4563
1	1710	4564
1	1660	4565
1	1622	4566
1	1595	4567
1	1593	4568
1	1623	4569
1	1660	4570
1	1700	4571
1	1731	4572
1	1749	4573
1	1764	4574
1	1782	4575
1	1801	4576
1	1816	4577
1	1821	4578
1	1826	4579
1	1817	4580
1	1795	4581
1	1766	4582
1	1736	4583
1	1703	4584
1	1660	4585
1	1623	4586
1	1590	4587
1	1567	4588
1	1567	4589
1	1600	4590
1	1638	4591
1	1681	4592
1	1731	4593
1	1765	4594
1	1809	4595
1	1848	4596
1	1885	4597
1	1908	4598
1	1909	4599
1	1890	4600
1	1864	4601
1	1838	4602
1	1802	4603
1	1770	4604
1	1753	4605
1	1738	4606
1	1726	4607
1	1719	4608
1	1724	4609
1	1737	4610
1	1757	4611
1	1787	4612
1	1819	4613
1	1854	4614
1	1881	4615
1	1909	4616
1	1931	4617
1	1948	4618
1	1948	4619
1	2141	4640
1	2155	4641
1	2147	4642
1	2123	4643
1	2079	4644
1	2017	4645
1	1960	4646
1	1898	4647
1	1847	4648
1	1813	4649
1	1792	4650
1	1791	4651
1	1801	4652
1	1832	4653
1	1870	4654
1	1922	4655
1	1978	4656
1	2026	4657
1	2067	4658
1	2091	4659
1	1940	4620
1	1911	4621
1	1869	4622
1	1813	4623
1	1748	4624
1	1695	4625
1	1649	4626
1	1625	4627
1	1620	4628
1	1641	4629
1	1675	4630
1	1721	4631
1	1790	4632
1	1870	4633
1	1940	4634
1	1992	4635
1	2028	4636
1	2057	4637
1	2083	4638
1	2119	4639
1	2093	4660
1	2079	4661
1	2055	4662
1	2025	4663
1	1996	4664
1	1975	4665
1	1949	4666
1	1927	4667
1	1917	4668
1	1921	4669
1	1942	4670
1	1970	4671
1	1998	4672
1	2016	4673
1	2031	4674
1	2040	4675
1	2053	4676
1	2079	4677
1	2097	4678
1	2117	4679
1	2133	4680
1	2131	4681
1	2112	4682
1	2081	4683
1	2052	4684
1	2024	4685
1	1996	4686
1	1976	4687
1	1973	4688
1	1985	4689
1	2003	4690
1	2032	4691
1	2074	4692
1	2120	4693
1	2180	4694
1	2258	4695
1	2329	4696
1	2394	4697
1	2433	4698
1	2453	4699
1	2446	4700
1	2413	4701
1	2352	4702
1	2285	4703
1	2222	4704
1	2169	4705
1	2130	4706
1	2099	4707
1	2079	4708
1	2077	4709
1	2089	4710
1	2105	4711
1	2129	4712
1	2156	4713
1	2182	4714
1	2199	4715
1	2212	4716
1	2228	4717
1	2233	4718
1	2231	4719
1	2184	4740
1	2166	4741
1	2136	4742
1	2103	4743
1	2074	4744
1	2034	4745
1	1989	4746
1	1945	4747
1	1911	4748
1	1901	4749
1	1897	4750
1	1899	4751
1	1904	4752
1	1910	4753
1	1919	4754
1	1935	4755
1	1948	4756
1	1953	4757
1	1948	4758
1	1933	4759
1	1908	4760
1	1881	4761
1	1851	4762
1	1814	4763
1	1765	4764
1	1718	4765
1	1679	4766
1	1647	4767
1	1632	4768
1	1620	4769
1	1618	4770
1	1616	4771
1	1625	4772
1	1639	4773
1	1662	4774
1	1697	4775
1	1734	4776
1	1766	4777
1	1799	4778
1	1823	4779
1	2205	4720
1	2172	4721
1	2129	4722
1	2078	4723
1	2026	4724
1	1985	4725
1	1941	4726
1	1899	4727
1	1870	4728
1	1865	4729
1	1868	4730
1	1891	4731
1	1924	4732
1	1970	4733
1	2019	4734
1	2057	4735
1	2095	4736
1	2131	4737
1	2165	4738
1	2183	4739
1	1830	4780
1	1827	4781
1	1809	4782
1	1775	4783
1	1742	4784
1	1715	4785
1	1685	4786
1	1660	4787
1	1644	4788
1	1634	4789
1	1632	4790
1	1637	4791
1	1652	4792
1	1674	4793
1	1692	4794
1	1702	4795
1	1708	4796
1	1704	4797
1	1698	4798
1	1697	4799
1	1700	4800
1	1700	4801
1	1699	4802
1	1707	4803
1	1711	4804
1	1701	4805
1	1681	4806
1	1654	4807
1	1633	4808
1	1613	4809
1	1602	4810
1	1605	4811
1	1620	4812
1	1636	4813
1	1665	4814
1	1706	4815
1	1733	4816
1	1762	4817
1	1795	4818
1	1831	4819
1	1738	4840
1	1733	4841
1	1716	4842
1	1699	4843
1	1677	4844
1	1657	4845
1	1635	4846
1	1626	4847
1	1625	4848
1	1638	4849
1	1660	4850
1	1692	4851
1	1733	4852
1	1775	4853
1	1817	4854
1	1854	4855
1	1888	4856
1	1917	4857
1	1934	4858
1	1935	4859
1	1849	4820
1	1850	4821
1	1842	4822
1	1823	4823
1	1788	4824
1	1743	4825
1	1700	4826
1	1660	4827
1	1621	4828
1	1590	4829
1	1580	4830
1	1573	4831
1	1572	4832
1	1592	4833
1	1613	4834
1	1634	4835
1	1664	4836
1	1686	4837
1	1712	4838
1	1729	4839
1	1927	4860
1	1904	4861
1	1869	4862
1	1831	4863
1	1776	4864
1	1730	4865
1	1697	4866
1	1678	4867
1	1676	4868
1	1681	4869
1	1677	4870
1	1674	4871
1	1685	4872
1	1700	4873
1	1721	4874
1	1738	4875
1	1751	4876
1	1764	4877
1	1778	4878
1	1787	4879
1	1775	4900
1	1764	4901
1	1744	4902
1	1714	4903
1	1686	4904
1	1661	4905
1	1641	4906
1	1630	4907
1	1629	4908
1	1638	4909
1	1660	4910
1	1685	4911
1	1715	4912
1	1740	4913
1	1763	4914
1	1772	4915
1	1788	4916
1	1803	4917
1	1815	4918
1	1809	4919
1	1783	4880
1	1768	4881
1	1741	4882
1	1712	4883
1	1684	4884
1	1656	4885
1	1637	4886
1	1620	4887
1	1603	4888
1	1594	4889
1	1607	4890
1	1628	4891
1	1657	4892
1	1685	4893
1	1711	4894
1	1730	4895
1	1739	4896
1	1749	4897
1	1762	4898
1	1774	4899
1	1798	4920
1	1775	4921
1	1751	4922
1	1725	4923
1	1700	4924
1	1674	4925
1	1644	4926
1	1609	4927
1	1586	4928
1	1574	4929
1	1572	4930
1	1589	4931
1	1626	4932
1	1668	4933
1	1703	4934
1	1737	4935
1	1760	4936
1	1778	4937
1	1796	4938
1	1816	4939
1	1818	4940
1	1815	4941
1	1796	4942
1	1777	4943
1	1764	4944
1	1744	4945
1	1729	4946
1	1713	4947
1	1702	4948
1	1694	4949
1	1688	4950
1	1701	4951
1	1712	4952
1	1723	4953
1	1730	4954
1	1738	4955
1	1751	4956
1	1764	4957
1	1783	4958
1	1791	4959
1	1773	4960
1	1751	4961
1	1726	4962
1	1695	4963
1	1662	4964
1	1638	4965
1	1611	4966
1	1601	4967
1	1605	4968
1	1623	4969
1	1659	4970
1	1699	4971
1	1740	4972
1	1782	4973
1	1827	4974
1	1865	4975
1	1904	4976
1	1932	4977
1	1943	4978
1	1944	4979
1	1936	4980
1	1901	4981
1	1856	4982
1	1808	4983
1	1755	4984
1	1708	4985
1	1661	4986
1	1634	4987
1	1616	4988
1	1617	4989
1	1634	4990
1	1668	4991
1	1713	4992
1	1764	4993
1	1821	4994
1	1871	4995
1	1908	4996
1	1932	4997
1	1948	4998
1	1955	4999
1	1956	5000
1	1945	5001
1	1922	5002
1	1895	5003
1	1863	5004
1	1822	5005
1	1778	5006
1	1739	5007
1	1700	5008
1	1665	5009
1	1644	5010
1	1627	5011
1	1631	5012
1	1647	5013
1	1663	5014
1	1686	5015
1	1710	5016
1	1733	5017
1	1753	5018
1	1759	5019
1	1748	5020
1	1730	5021
1	1700	5022
1	1661	5023
1	1629	5024
1	1597	5025
1	1570	5026
1	1555	5027
1	1553	5028
1	1558	5029
1	1570	5030
1	1593	5031
1	1625	5032
1	1665	5033
1	1712	5034
1	1755	5035
1	1788	5036
1	1816	5037
1	1829	5038
1	1832	5039
1	1819	5040
1	1796	5041
1	1766	5042
1	1733	5043
1	1700	5044
1	1671	5045
1	1647	5046
1	1634	5047
1	1630	5048
1	1638	5049
1	1652	5050
1	1677	5051
1	1712	5052
1	1757	5053
1	1808	5054
1	1851	5055
1	1869	5056
1	1872	5057
1	1862	5058
1	1844	5059
1	1830	5060
1	1803	5061
1	1776	5062
1	1744	5063
1	1712	5064
1	1687	5065
1	1683	5066
1	1691	5067
1	1711	5068
1	1742	5069
1	1793	5070
1	1857	5071
1	1934	5072
1	2018	5073
1	2106	5074
1	2194	5075
1	2285	5076
1	2359	5077
1	2419	5078
1	2479	5079
1	2509	5080
1	2522	5081
1	2514	5082
1	2479	5083
1	2404	5084
1	2318	5085
1	2204	5086
1	2093	5087
1	1974	5088
1	1868	5089
1	1765	5090
1	1677	5091
1	1590	5092
1	1503	5093
1	1436	5094
1	1382	5095
1	1350	5096
1	1322	5097
1	1293	5098
1	1260	5099
1	1220	5100
1	1166	5101
1	1106	5102
1	1040	5103
1	977	5104
1	918	5105
1	874	5106
1	848	5107
1	841	5108
1	855	5109
1	882	5110
1	927	5111
1	979	5112
1	1029	5113
1	1065	5114
1	1108	5115
1	1147	5116
1	1184	5117
1	1204	5118
1	1222	5119
1	1238	5120
1	1251	5121
1	1266	5122
1	1274	5123
1	1279	5124
1	1279	5125
1	1281	5126
1	1291	5127
1	1309	5128
1	1341	5129
1	1398	5130
1	1454	5131
1	1510	5132
1	1576	5133
1	1644	5134
1	1697	5135
1	1750	5136
1	1790	5137
1	1818	5138
1	1838	5139
1	1847	5140
1	1845	5141
1	1835	5142
1	1817	5143
1	1787	5144
1	1752	5145
1	1716	5146
1	1688	5147
1	1674	5148
1	1678	5149
1	1686	5150
1	1708	5151
1	1735	5152
1	1764	5153
1	1791	5154
1	1816	5155
1	1827	5156
1	1839	5157
1	1845	5158
1	1855	5159
1	1856	5160
1	1843	5161
1	1831	5162
1	1809	5163
1	1785	5164
1	1764	5165
1	1740	5166
1	1718	5167
1	1701	5168
1	1690	5169
1	1686	5170
1	1703	5171
1	1736	5172
1	1773	5173
1	1824	5174
1	1875	5175
1	1908	5176
1	1937	5177
1	1956	5178
1	1963	5179
1	1981	5200
1	1948	5201
1	1900	5202
1	1849	5203
1	1799	5204
1	1757	5205
1	1716	5206
1	1689	5207
1	1679	5208
1	1683	5209
1	1695	5210
1	1719	5211
1	1761	5212
1	1809	5213
1	1856	5214
1	1896	5215
1	1934	5216
1	1965	5217
1	1988	5218
1	1998	5219
1	1955	5180
1	1935	5181
1	1901	5182
1	1856	5183
1	1803	5184
1	1751	5185
1	1712	5186
1	1687	5187
1	1674	5188
1	1661	5189
1	1666	5190
1	1682	5191
1	1712	5192
1	1754	5193
1	1809	5194
1	1868	5195
1	1922	5196
1	1965	5197
1	1999	5198
1	2006	5199
1	1999	5220
1	1980	5221
1	1948	5222
1	1904	5223
1	1857	5224
1	1817	5225
1	1787	5226
1	1766	5227
1	1762	5228
1	1769	5229
1	1783	5230
1	1818	5231
1	1859	5232
1	1895	5233
1	1917	5234
1	1952	5235
1	1985	5236
1	2021	5237
1	2051	5238
1	2081	5239
1	2105	5240
1	2124	5241
1	2141	5242
1	2149	5243
1	2155	5244
1	2149	5245
1	2139	5246
1	2120	5247
1	2096	5248
1	2070	5249
1	2060	5250
1	2055	5251
1	2066	5252
1	2090	5253
1	2118	5254
1	2138	5255
1	2155	5256
1	2168	5257
1	2181	5258
1	2188	5259
1	2183	5260
1	2165	5261
1	2139	5262
1	2105	5263
1	2069	5264
1	2038	5265
1	2003	5266
1	1974	5267
1	1955	5268
1	1947	5269
1	1948	5270
1	1960	5271
1	1985	5272
1	2013	5273
1	2039	5274
1	2056	5275
1	2074	5276
1	2080	5277
1	2089	5278
1	2094	5279
1	2092	5280
1	2081	5281
1	2073	5282
1	2061	5283
1	2045	5284
1	2026	5285
1	2012	5286
1	2012	5287
1	2029	5288
1	2057	5289
1	2086	5290
1	2120	5291
1	2157	5292
1	2189	5293
1	2220	5294
1	2251	5295
1	2262	5296
1	2262	5297
1	2249	5298
1	2228	5299
1	2194	5300
1	2157	5301
1	2120	5302
1	2088	5303
1	2061	5304
1	2034	5305
1	2021	5306
1	2010	5307
1	2001	5308
1	2005	5309
1	2025	5310
1	2050	5311
1	2079	5312
1	2116	5313
1	2147	5314
1	2168	5315
1	2179	5316
1	2175	5317
1	2161	5318
1	2141	5319
1	2102	5320
1	2056	5321
1	1996	5322
1	1934	5323
1	1873	5324
1	1818	5325
1	1764	5326
1	1724	5327
1	1688	5328
1	1669	5329
1	1661	5330
1	1683	5331
1	1724	5332
1	1767	5333
1	1814	5334
1	1851	5335
1	1874	5336
1	1886	5337
1	1882	5338
1	1862	5339
1	1827	5340
1	1783	5341
1	1746	5342
1	1706	5343
1	1672	5344
1	1638	5345
1	1607	5346
1	1589	5347
1	1574	5348
1	1569	5349
1	1574	5350
1	1598	5351
1	1639	5352
1	1691	5353
1	1743	5354
1	1788	5355
1	1813	5356
1	1818	5357
1	1813	5358
1	1808	5359
1	1809	5360
1	1815	5361
1	1808	5362
1	1786	5363
1	1752	5364
1	1706	5365
1	1669	5366
1	1641	5367
1	1620	5368
1	1617	5369
1	1629	5370
1	1637	5371
1	1643	5372
1	1642	5373
1	1635	5374
1	1632	5375
1	1625	5376
1	1621	5377
1	1619	5378
1	1625	5379
1	1620	5380
1	1607	5381
1	1592	5382
1	1575	5383
1	1558	5384
1	1544	5385
1	1529	5386
1	1516	5387
1	1513	5388
1	1517	5389
1	1535	5390
1	1564	5391
1	1594	5392
1	1629	5393
1	1662	5394
1	1698	5395
1	1723	5396
1	1744	5397
1	1760	5398
1	1764	5399
1	1764	5400
1	1751	5401
1	1728	5402
1	1695	5403
1	1665	5404
1	1645	5405
1	1621	5406
1	1592	5407
1	1569	5408
1	1555	5409
1	1555	5410
1	1567	5411
1	1591	5412
1	1623	5413
1	1668	5414
1	1717	5415
1	1764	5416
1	1809	5417
1	1839	5418
1	1844	5419
1	1832	5420
1	1800	5421
1	1760	5422
1	1712	5423
1	1667	5424
1	1619	5425
1	1581	5426
1	1556	5427
1	1542	5428
1	1532	5429
1	1544	5430
1	1555	5431
1	1574	5432
1	1610	5433
1	1648	5434
1	1672	5435
1	1694	5436
1	1714	5437
1	1729	5438
1	1740	5439
1	1744	5440
1	1738	5441
1	1716	5442
1	1690	5443
1	1668	5444
1	1646	5445
1	1633	5446
1	1620	5447
1	1620	5448
1	1628	5449
1	1641	5450
1	1661	5451
1	1692	5452
1	1727	5453
1	1762	5454
1	1791	5455
1	1814	5456
1	1817	5457
1	1814	5458
1	1799	5459
1	1752	5480
1	1704	5481
1	1651	5482
1	1595	5483
1	1551	5484
1	1503	5485
1	1468	5486
1	1447	5487
1	1433	5488
1	1431	5489
1	1446	5490
1	1460	5491
1	1476	5492
1	1508	5493
1	1544	5494
1	1587	5495
1	1634	5496
1	1680	5497
1	1719	5498
1	1739	5499
1	1785	5460
1	1764	5461
1	1737	5462
1	1705	5463
1	1673	5464
1	1647	5465
1	1631	5466
1	1625	5467
1	1635	5468
1	1661	5469
1	1691	5470
1	1721	5471
1	1752	5472
1	1781	5473
1	1803	5474
1	1829	5475
1	1839	5476
1	1841	5477
1	1827	5478
1	1791	5479
1	1734	5500
1	1712	5501
1	1683	5502
1	1651	5503
1	1623	5504
1	1603	5505
1	1581	5506
1	1562	5507
1	1553	5508
1	1553	5509
1	1555	5510
1	1580	5511
1	1615	5512
1	1660	5513
1	1699	5514
1	1733	5515
1	1764	5516
1	1790	5517
1	1801	5518
1	1802	5519
1	1729	5540
1	1715	5541
1	1703	5542
1	1685	5543
1	1672	5544
1	1660	5545
1	1665	5546
1	1681	5547
1	1697	5548
1	1724	5549
1	1762	5550
1	1802	5551
1	1854	5552
1	1895	5553
1	1922	5554
1	1936	5555
1	1946	5556
1	1940	5557
1	1924	5558
1	1909	5559
1	1791	5520
1	1763	5521
1	1721	5522
1	1680	5523
1	1645	5524
1	1611	5525
1	1590	5526
1	1580	5527
1	1581	5528
1	1596	5529
1	1607	5530
1	1628	5531
1	1646	5532
1	1657	5533
1	1664	5534
1	1678	5535
1	1689	5536
1	1706	5537
1	1717	5538
1	1731	5539
1	1888	5560
1	1868	5561
1	1832	5562
1	1777	5563
1	1720	5564
1	1681	5565
1	1652	5566
1	1642	5567
1	1647	5568
1	1661	5569
1	1686	5570
1	1720	5571
1	1762	5572
1	1803	5573
1	1846	5574
1	1870	5575
1	1895	5576
1	1911	5577
1	1914	5578
1	1899	5579
1	2032	5600
1	2027	5601
1	2001	5602
1	1965	5603
1	1922	5604
1	1871	5605
1	1844	5606
1	1816	5607
1	1791	5608
1	1790	5609
1	1803	5610
1	1821	5611
1	1842	5612
1	1867	5613
1	1895	5614
1	1922	5615
1	1952	5616
1	1974	5617
1	1978	5618
1	1975	5619
1	1870	5580
1	1823	5581
1	1764	5582
1	1705	5583
1	1652	5584
1	1596	5585
1	1559	5586
1	1537	5587
1	1529	5588
1	1541	5589
1	1566	5590
1	1607	5591
1	1655	5592
1	1710	5593
1	1766	5594
1	1840	5595
1	1896	5596
1	1949	5597
1	1995	5598
1	2024	5599
1	1958	5620
1	1940	5621
1	1922	5622
1	1908	5623
1	1909	5624
1	1922	5625
1	1942	5626
1	1974	5627
1	2019	5628
1	2079	5629
1	2145	5630
1	2222	5631
1	2331	5632
1	2438	5633
1	2534	5634
1	2619	5635
1	2671	5636
1	2687	5637
1	2679	5638
1	2633	5639
1	2551	5640
1	2444	5641
1	2302	5642
1	2145	5643
1	1981	5644
1	1824	5645
1	1659	5646
1	1504	5647
1	1372	5648
1	1269	5649
1	1188	5650
1	1155	5651
1	1148	5652
1	1163	5653
1	1189	5654
1	1219	5655
1	1229	5656
1	1230	5657
1	1222	5658
1	1197	5659
1	1164	5660
1	1122	5661
1	1070	5662
1	1006	5663
1	936	5664
1	869	5665
1	819	5666
1	777	5667
1	753	5668
1	751	5669
1	774	5670
1	816	5671
1	874	5672
1	944	5673
1	1024	5674
1	1098	5675
1	1170	5676
1	1228	5677
1	1267	5678
1	1296	5679
1	1310	5680
1	1312	5681
1	1311	5682
1	1301	5683
1	1296	5684
1	1296	5685
1	1299	5686
1	1305	5687
1	1319	5688
1	1346	5689
1	1376	5690
1	1425	5691
1	1480	5692
1	1545	5693
1	1612	5694
1	1672	5695
1	1723	5696
1	1755	5697
1	1766	5698
1	1762	5699
1	1737	5700
1	1699	5701
1	1660	5702
1	1624	5703
1	1584	5704
1	1551	5705
1	1530	5706
1	1526	5707
1	1526	5708
1	1529	5709
1	1518	5710
1	1511	5711
1	1507	5712
1	1503	5713
1	1490	5714
1	1479	5715
1	1481	5716
1	1498	5717
1	1512	5718
1	1523	5719
1	1529	5720
1	1530	5721
1	1529	5722
1	1524	5723
1	1512	5724
1	1502	5725
1	1503	5726
1	1508	5727
1	1521	5728
1	1528	5729
1	1554	5730
1	1581	5731
1	1616	5732
1	1649	5733
1	1686	5734
1	1701	5735
1	1712	5736
1	1718	5737
1	1713	5738
1	1701	5739
1	1686	5740
1	1662	5741
1	1643	5742
1	1617	5743
1	1597	5744
1	1579	5745
1	1566	5746
1	1557	5747
1	1552	5748
1	1551	5749
1	1555	5750
1	1570	5751
1	1595	5752
1	1634	5753
1	1677	5754
1	1708	5755
1	1719	5756
1	1718	5757
1	1713	5758
1	1701	5759
1	1688	5760
1	1670	5761
1	1650	5762
1	1626	5763
1	1593	5764
1	1556	5765
1	1525	5766
1	1503	5767
1	1493	5768
1	1499	5769
1	1517	5770
1	1553	5771
1	1595	5772
1	1649	5773
1	1710	5774
1	1773	5775
1	1836	5776
1	1885	5777
1	1914	5778
1	1922	5779
1	1884	5800
1	1836	5801
1	1783	5802
1	1737	5803
1	1699	5804
1	1668	5805
1	1652	5806
1	1641	5807
1	1634	5808
1	1629	5809
1	1639	5810
1	1667	5811
1	1703	5812
1	1751	5813
1	1802	5814
1	1849	5815
1	1893	5816
1	1917	5817
1	1923	5818
1	1922	5819
1	1908	5780
1	1880	5781
1	1846	5782
1	1801	5783
1	1760	5784
1	1704	5785
1	1657	5786
1	1626	5787
1	1615	5788
1	1620	5789
1	1641	5790
1	1673	5791
1	1717	5792
1	1769	5793
1	1824	5794
1	1869	5795
1	1906	5796
1	1934	5797
1	1941	5798
1	1924	5799
1	1916	5820
1	1899	5821
1	1879	5822
1	1855	5823
1	1843	5824
1	1841	5825
1	1844	5826
1	1858	5827
1	1882	5828
1	1913	5829
1	1942	5830
1	1969	5831
1	2000	5832
1	2024	5833
1	2032	5834
1	2042	5835
1	2048	5836
1	2052	5837
1	2063	5838
1	2054	5839
1	2029	5840
1	2000	5841
1	1973	5842
1	1945	5843
1	1922	5844
1	1895	5845
1	1867	5846
1	1845	5847
1	1832	5848
1	1831	5849
1	1832	5850
1	1841	5851
1	1857	5852
1	1877	5853
1	1905	5854
1	1940	5855
1	1974	5856
1	2006	5857
1	2026	5858
1	2026	5859
1	2004	5860
1	1982	5861
1	1946	5862
1	1899	5863
1	1843	5864
1	1777	5865
1	1715	5866
1	1663	5867
1	1629	5868
1	1607	5869
1	1594	5870
1	1593	5871
1	1600	5872
1	1622	5873
1	1648	5874
1	1678	5875
1	1704	5876
1	1727	5877
1	1746	5878
1	1749	5879
1	1738	5880
1	1711	5881
1	1674	5882
1	1634	5883
1	1593	5884
1	1553	5885
1	1520	5886
1	1499	5887
1	1491	5888
1	1499	5889
1	1503	5890
1	1528	5891
1	1564	5892
1	1608	5893
1	1652	5894
1	1690	5895
1	1715	5896
1	1733	5897
1	1736	5898
1	1727	5899
1	1699	5900
1	1647	5901
1	1584	5902
1	1523	5903
1	1469	5904
1	1419	5905
1	1379	5906
1	1351	5907
1	1334	5908
1	1327	5909
1	1332	5910
1	1346	5911
1	1374	5912
1	1419	5913
1	1463	5914
1	1507	5915
1	1545	5916
1	1572	5917
1	1581	5918
1	1580	5919
1	1557	5920
1	1530	5921
1	1500	5922
1	1458	5923
1	1413	5924
1	1359	5925
1	1309	5926
1	1269	5927
1	1254	5928
1	1265	5929
1	1287	5930
1	1319	5931
1	1359	5932
1	1397	5933
1	1430	5934
1	1467	5935
1	1497	5936
1	1518	5937
1	1528	5938
1	1525	5939
1	1511	5940
1	1484	5941
1	1445	5942
1	1398	5943
1	1351	5944
1	1332	5945
1	1319	5946
1	1319	5947
1	1328	5948
1	1351	5949
1	1380	5950
1	1413	5951
1	1451	5952
1	1498	5953
1	1549	5954
1	1611	5955
1	1661	5956
1	1695	5957
1	1712	5958
1	1712	5959
1	1555	5980
1	1536	5981
1	1511	5982
1	1481	5983
1	1449	5984
1	1417	5985
1	1392	5986
1	1382	5987
1	1395	5988
1	1416	5989
1	1437	5990
1	1456	5991
1	1477	5992
1	1494	5993
1	1508	5994
1	1524	5995
1	1537	5996
1	1543	5997
1	1536	5998
1	1526	5999
1	1699	5960
1	1661	5961
1	1607	5962
1	1538	5963
1	1456	5964
1	1356	5965
1	1285	5966
1	1229	5967
1	1202	5968
1	1205	5969
1	1227	5970
1	1257	5971
1	1297	5972
1	1344	5973
1	1394	5974
1	1437	5975
1	1484	5976
1	1525	5977
1	1553	5978
1	1562	5979
1	1503	6000
1	1472	6001
1	1434	6002
1	1392	6003
1	1350	6004
1	1327	6005
1	1319	6006
1	1323	6007
1	1350	6008
1	1394	6009
1	1442	6010
1	1502	6011
1	1559	6012
1	1611	6013
1	1654	6014
1	1685	6015
1	1701	6016
1	1700	6017
1	1687	6018
1	1664	6019
1	1534	6040
1	1507	6041
1	1472	6042
1	1424	6043
1	1376	6044
1	1332	6045
1	1299	6046
1	1281	6047
1	1268	6048
1	1269	6049
1	1302	6050
1	1349	6051
1	1418	6052
1	1481	6053
1	1536	6054
1	1585	6055
1	1609	6056
1	1629	6057
1	1628	6058
1	1607	6059
1	1631	6020
1	1581	6021
1	1525	6022
1	1463	6023
1	1404	6024
1	1332	6025
1	1279	6026
1	1236	6027
1	1206	6028
1	1188	6029
1	1190	6030
1	1204	6031
1	1228	6032
1	1270	6033
1	1337	6034
1	1401	6035
1	1454	6036
1	1503	6037
1	1535	6038
1	1543	6039
1	1585	6060
1	1553	6061
1	1517	6062
1	1485	6063
1	1455	6064
1	1433	6065
1	1424	6066
1	1415	6067
1	1417	6068
1	1426	6069
1	1432	6070
1	1440	6071
1	1450	6072
1	1467	6073
1	1490	6074
1	1519	6075
1	1542	6076
1	1561	6077
1	1574	6078
1	1571	6079
1	1561	6080
1	1547	6081
1	1514	6082
1	1476	6083
1	1433	6084
1	1373	6085
1	1337	6086
1	1319	6087
1	1327	6088
1	1361	6089
1	1421	6090
1	1476	6091
1	1530	6092
1	1581	6093
1	1624	6094
1	1665	6095
1	1703	6096
1	1728	6097
1	1733	6098
1	1715	6099
1	1677	6100
1	1634	6101
1	1574	6102
1	1506	6103
1	1445	6104
1	1382	6105
1	1324	6106
1	1277	6107
1	1256	6108
1	1267	6109
1	1307	6110
1	1368	6111
1	1437	6112
1	1503	6113
1	1554	6114
1	1600	6115
1	1634	6116
1	1659	6117
1	1675	6118
1	1683	6119
1	1661	6120
1	1620	6121
1	1575	6122
1	1529	6123
1	1482	6124
1	1430	6125
1	1382	6126
1	1345	6127
1	1323	6128
1	1328	6129
1	1347	6130
1	1382	6131
1	1430	6132
1	1467	6133
1	1512	6134
1	1551	6135
1	1575	6136
1	1589	6137
1	1593	6138
1	1585	6139
1	1562	6140
1	1529	6141
1	1499	6142
1	1463	6143
1	1431	6144
1	1398	6145
1	1372	6146
1	1353	6147
1	1336	6148
1	1327	6149
1	1320	6150
1	1327	6151
1	1345	6152
1	1372	6153
1	1409	6154
1	1440	6155
1	1470	6156
1	1485	6157
1	1484	6158
1	1468	6159
1	1438	6160
1	1413	6161
1	1384	6162
1	1360	6163
1	1341	6164
1	1322	6165
1	1314	6166
1	1319	6167
1	1335	6168
1	1357	6169
1	1377	6170
1	1407	6171
1	1442	6172
1	1485	6173
1	1530	6174
1	1577	6175
1	1616	6176
1	1654	6177
1	1685	6178
1	1705	6179
1	1716	6180
1	1716	6181
1	1712	6182
1	1708	6183
1	1711	6184
1	1720	6185
1	1731	6186
1	1747	6187
1	1778	6188
1	1832	6189
1	1885	6190
1	1945	6191
1	2013	6192
1	2084	6193
1	2143	6194
1	2183	6195
1	2199	6196
1	2198	6197
1	2169	6198
1	2103	6199
1	2000	6200
1	1869	6201
1	1719	6202
1	1563	6203
1	1398	6204
1	1217	6205
1	1071	6206
1	944	6207
1	848	6208
1	785	6209
1	754	6210
1	748	6211
1	756	6212
1	769	6213
1	783	6214
1	818	6215
1	849	6216
1	886	6217
1	914	6218
1	927	6219
1	927	6220
1	914	6221
1	887	6222
1	846	6223
1	804	6224
1	777	6225
1	765	6226
1	767	6227
1	780	6228
1	808	6229
1	840	6230
1	871	6231
1	921	6232
1	984	6233
1	1048	6234
1	1111	6235
1	1171	6236
1	1228	6237
1	1268	6238
1	1297	6239
1	1306	6240
1	1310	6241
1	1305	6242
1	1293	6243
1	1281	6244
1	1267	6245
1	1254	6246
1	1254	6247
1	1273	6248
1	1305	6249
1	1354	6250
1	1402	6251
1	1450	6252
1	1501	6253
1	1545	6254
1	1582	6255
1	1611	6256
1	1634	6257
1	1641	6258
1	1638	6259
1	1631	6260
1	1607	6261
1	1573	6262
1	1531	6263
1	1485	6264
1	1423	6265
1	1368	6266
1	1328	6267
1	1307	6268
1	1315	6269
1	1332	6270
1	1368	6271
1	1422	6272
1	1474	6273
1	1528	6274
1	1580	6275
1	1625	6276
1	1662	6277
1	1691	6278
1	1697	6279
1	1699	6300
1	1655	6301
1	1606	6302
1	1559	6303
1	1523	6304
1	1490	6305
1	1469	6306
1	1458	6307
1	1453	6308
1	1463	6309
1	1487	6310
1	1528	6311
1	1573	6312
1	1621	6313
1	1674	6314
1	1715	6315
1	1760	6316
1	1785	6317
1	1796	6318
1	1791	6319
1	1679	6280
1	1656	6281
1	1626	6282
1	1597	6283
1	1569	6284
1	1537	6285
1	1504	6286
1	1481	6287
1	1469	6288
1	1472	6289
1	1490	6290
1	1525	6291
1	1564	6292
1	1607	6293
1	1659	6294
1	1703	6295
1	1738	6296
1	1753	6297
1	1751	6298
1	1733	6299
1	1769	6320
1	1738	6321
1	1698	6322
1	1654	6323
1	1607	6324
1	1556	6325
1	1524	6326
1	1508	6327
1	1508	6328
1	1530	6329
1	1569	6330
1	1607	6331
1	1636	6332
1	1665	6333
1	1695	6334
1	1711	6335
1	1728	6336
1	1737	6337
1	1741	6338
1	1738	6339
1	1736	6340
1	1724	6341
1	1710	6342
1	1698	6343
1	1686	6344
1	1662	6345
1	1647	6346
1	1646	6347
1	1662	6348
1	1701	6349
1	1752	6350
1	1802	6351
1	1863	6352
1	1922	6353
1	1974	6354
1	2021	6355
1	2042	6356
1	2052	6357
1	2039	6358
1	2016	6359
1	1974	6360
1	1922	6361
1	1861	6362
1	1800	6363
1	1749	6364
1	1696	6365
1	1652	6366
1	1628	6367
1	1617	6368
1	1626	6369
1	1644	6370
1	1670	6371
1	1711	6372
1	1755	6373
1	1800	6374
1	1851	6375
1	1893	6376
1	1924	6377
1	1948	6378
1	1969	6379
1	2000	6400
1	1983	6401
1	1961	6402
1	1926	6403
1	1895	6404
1	1862	6405
1	1836	6406
1	1817	6407
1	1800	6408
1	1793	6409
1	1814	6410
1	1848	6411
1	1895	6412
1	1947	6413
1	1993	6414
1	2026	6415
1	2041	6416
1	2045	6417
1	2034	6418
1	2011	6419
1	1992	6380
1	2009	6381
1	2019	6382
1	2018	6383
1	2002	6384
1	1967	6385
1	1937	6386
1	1906	6387
1	1882	6388
1	1873	6389
1	1878	6390
1	1884	6391
1	1886	6392
1	1892	6393
1	1904	6394
1	1922	6395
1	1949	6396
1	1974	6397
1	1996	6398
1	2004	6399
1	1974	6420
1	1931	6421
1	1882	6422
1	1827	6423
1	1775	6424
1	1736	6425
1	1708	6426
1	1687	6427
1	1680	6428
1	1686	6429
1	1695	6430
1	1710	6431
1	1734	6432
1	1752	6433
1	1779	6434
1	1813	6435
1	1832	6436
1	1842	6437
1	1832	6438
1	1813	6439
1	1667	6460
1	1649	6461
1	1616	6462
1	1575	6463
1	1529	6464
1	1477	6465
1	1430	6466
1	1395	6467
1	1370	6468
1	1364	6469
1	1379	6470
1	1405	6471
1	1437	6472
1	1476	6473
1	1517	6474
1	1556	6475
1	1595	6476
1	1631	6477
1	1647	6478
1	1652	6479
1	1621	6500
1	1602	6501
1	1570	6502
1	1535	6503
1	1501	6504
1	1472	6505
1	1449	6506
1	1425	6507
1	1421	6508
1	1431	6509
1	1456	6510
1	1489	6511
1	1523	6512
1	1549	6513
1	1574	6514
1	1595	6515
1	1606	6516
1	1602	6517
1	1587	6518
1	1559	6519
1	1768	6440
1	1713	6441
1	1660	6442
1	1611	6443
1	1567	6444
1	1514	6445
1	1476	6446
1	1440	6447
1	1417	6448
1	1413	6449
1	1424	6450
1	1450	6451
1	1489	6452
1	1534	6453
1	1572	6454
1	1606	6455
1	1632	6456
1	1656	6457
1	1670	6458
1	1677	6459
1	1637	6480
1	1608	6481
1	1571	6482
1	1525	6483
1	1476	6484
1	1419	6485
1	1355	6486
1	1305	6487
1	1269	6488
1	1256	6489
1	1265	6490
1	1293	6491
1	1331	6492
1	1373	6493
1	1429	6494
1	1481	6495
1	1529	6496
1	1573	6497
1	1607	6498
1	1624	6499
1	1579	6540
1	1567	6541
1	1555	6542
1	1536	6543
1	1517	6544
1	1487	6545
1	1454	6546
1	1430	6547
1	1411	6548
1	1394	6549
1	1372	6550
1	1372	6551
1	1384	6552
1	1411	6553
1	1438	6554
1	1473	6555
1	1495	6556
1	1520	6557
1	1541	6558
1	1562	6559
1	1512	6520
1	1455	6521
1	1397	6522
1	1337	6523
1	1301	6524
1	1277	6525
1	1269	6526
1	1274	6527
1	1283	6528
1	1295	6529
1	1319	6530
1	1350	6531
1	1393	6532
1	1436	6533
1	1474	6534
1	1508	6535
1	1542	6536
1	1562	6537
1	1573	6538
1	1580	6539
1	1582	6560
1	1597	6561
1	1605	6562
1	1606	6563
1	1589	6564
1	1551	6565
1	1523	6566
1	1497	6567
1	1479	6568
1	1476	6569
1	1479	6570
1	1494	6571
1	1512	6572
1	1530	6573
1	1544	6574
1	1555	6575
1	1562	6576
1	1570	6577
1	1574	6578
1	1570	6579
1	1550	6580
1	1529	6581
1	1502	6582
1	1476	6583
1	1448	6584
1	1424	6585
1	1403	6586
1	1384	6587
1	1392	6588
1	1413	6589
1	1450	6590
1	1497	6591
1	1543	6592
1	1594	6593
1	1647	6594
1	1675	6595
1	1683	6596
1	1669	6597
1	1643	6598
1	1599	6599
1	1554	6600
1	1502	6601
1	1446	6602
1	1396	6603
1	1341	6604
1	1293	6605
1	1254	6606
1	1229	6607
1	1218	6608
1	1217	6609
1	1234	6610
1	1265	6611
1	1311	6612
1	1373	6613
1	1447	6614
1	1513	6615
1	1566	6616
1	1605	6617
1	1628	6618
1	1634	6619
1	1647	6640
1	1607	6641
1	1561	6642
1	1512	6643
1	1463	6644
1	1422	6645
1	1379	6646
1	1364	6647
1	1351	6648
1	1361	6649
1	1373	6650
1	1400	6651
1	1431	6652
1	1464	6653
1	1502	6654
1	1539	6655
1	1561	6656
1	1585	6657
1	1599	6658
1	1596	6659
1	1626	6620
1	1607	6621
1	1576	6622
1	1550	6623
1	1527	6624
1	1503	6625
1	1491	6626
1	1484	6627
1	1484	6628
1	1490	6629
1	1502	6630
1	1508	6631
1	1530	6632
1	1564	6633
1	1608	6634
1	1638	6635
1	1662	6636
1	1681	6637
1	1684	6638
1	1673	6639
1	1592	6660
1	1579	6661
1	1561	6662
1	1543	6663
1	1526	6664
1	1503	6665
1	1476	6666
1	1451	6667
1	1435	6668
1	1425	6669
1	1427	6670
1	1442	6671
1	1471	6672
1	1508	6673
1	1554	6674
1	1596	6675
1	1620	6676
1	1634	6677
1	1638	6678
1	1641	6679
1	1641	6680
1	1635	6681
1	1628	6682
1	1611	6683
1	1593	6684
1	1561	6685
1	1535	6686
1	1520	6687
1	1517	6688
1	1533	6689
1	1566	6690
1	1593	6691
1	1620	6692
1	1647	6693
1	1674	6694
1	1700	6695
1	1712	6696
1	1710	6697
1	1687	6698
1	1657	6699
1	1596	6700
1	1555	6701
1	1503	6702
1	1450	6703
1	1401	6704
1	1364	6705
1	1335	6706
1	1318	6707
1	1305	6708
1	1314	6709
1	1335	6710
1	1361	6711
1	1400	6712
1	1441	6713
1	1481	6714
1	1511	6715
1	1530	6716
1	1544	6717
1	1551	6718
1	1544	6719
1	1530	6720
1	1498	6721
1	1450	6722
1	1402	6723
1	1355	6724
1	1319	6725
1	1290	6726
1	1275	6727
1	1279	6728
1	1302	6729
1	1341	6730
1	1382	6731
1	1443	6732
1	1494	6733
1	1540	6734
1	1580	6735
1	1608	6736
1	1645	6737
1	1665	6738
1	1685	6739
1	2181	6760
1	2157	6761
1	2124	6762
1	2077	6763
1	2011	6764
1	1943	6765
1	1868	6766
1	1789	6767
1	1710	6768
1	1626	6769
1	1543	6770
1	1467	6771
1	1398	6772
1	1335	6773
1	1287	6774
1	1240	6775
1	1204	6776
1	1162	6777
1	1116	6778
1	1070	6779
1	1173	6800
1	1189	6801
1	1204	6802
1	1215	6803
1	1219	6804
1	1232	6805
1	1247	6806
1	1276	6807
1	1319	6808
1	1371	6809
1	1425	6810
1	1467	6811
1	1507	6812
1	1548	6813
1	1589	6814
1	1628	6815
1	1656	6816
1	1682	6817
1	1698	6818
1	1697	6819
1	1685	6740
1	1674	6741
1	1659	6742
1	1636	6743
1	1613	6744
1	1587	6745
1	1581	6746
1	1587	6747
1	1618	6748
1	1665	6749
1	1738	6750
1	1817	6751
1	1896	6752
1	1979	6753
1	2052	6754
1	2109	6755
1	2153	6756
1	2181	6757
1	2195	6758
1	2198	6759
1	1026	6780
1	979	6781
1	927	6782
1	888	6783
1	859	6784
1	831	6785
1	813	6786
1	801	6787
1	803	6788
1	819	6789
1	844	6790
1	872	6791
1	905	6792
1	945	6793
1	990	6794
1	1031	6795
1	1062	6796
1	1092	6797
1	1120	6798
1	1148	6799
1	1764	6840
1	1739	6841
1	1712	6842
1	1677	6843
1	1648	6844
1	1617	6845
1	1592	6846
1	1570	6847
1	1556	6848
1	1553	6849
1	1553	6850
1	1564	6851
1	1592	6852
1	1632	6853
1	1665	6854
1	1705	6855
1	1727	6856
1	1733	6857
1	1725	6858
1	1706	6859
1	1664	6820
1	1623	6821
1	1569	6822
1	1503	6823
1	1445	6824
1	1402	6825
1	1371	6826
1	1359	6827
1	1372	6828
1	1398	6829
1	1435	6830
1	1468	6831
1	1520	6832
1	1569	6833
1	1616	6834
1	1657	6835
1	1690	6836
1	1722	6837
1	1749	6838
1	1764	6839
1	1674	6860
1	1634	6861
1	1599	6862
1	1571	6863
1	1549	6864
1	1529	6865
1	1521	6866
1	1517	6867
1	1526	6868
1	1542	6869
1	1566	6870
1	1593	6871
1	1633	6872
1	1669	6873
1	1705	6874
1	1736	6875
1	1760	6876
1	1778	6877
1	1788	6878
1	1783	6879
1	1767	6880
1	1755	6881
1	1746	6882
1	1735	6883
1	1711	6884
1	1686	6885
1	1652	6886
1	1638	6887
1	1634	6888
1	1643	6889
1	1657	6890
1	1683	6891
1	1712	6892
1	1737	6893
1	1746	6894
1	1743	6895
1	1737	6896
1	1721	6897
1	1701	6898
1	1674	6899
1	1647	6900
1	1624	6901
1	1606	6902
1	1586	6903
1	1569	6904
1	1556	6905
1	1557	6906
1	1582	6907
1	1625	6908
1	1679	6909
1	1746	6910
1	1801	6911
1	1864	6912
1	1920	6913
1	1962	6914
1	1998	6915
1	2013	6916
1	2015	6917
1	2003	6918
1	1979	6919
1	1944	6920
1	1893	6921
1	1836	6922
1	1782	6923
1	1744	6924
1	1708	6925
1	1692	6926
1	1687	6927
1	1693	6928
1	1708	6929
1	1741	6930
1	1778	6931
1	1817	6932
1	1851	6933
1	1900	6934
1	1935	6935
1	1965	6936
1	1996	6937
1	2008	6938
1	2009	6939
1	2000	6940
1	1982	6941
1	1957	6942
1	1929	6943
1	1897	6944
1	1868	6945
1	1834	6946
1	1825	6947
1	1816	6948
1	1823	6949
1	1832	6950
1	1849	6951
1	1878	6952
1	1921	6953
1	1976	6954
1	2045	6955
1	2088	6956
1	2131	6957
1	2161	6958
1	2178	6959
1	2187	6960
1	2178	6961
1	2157	6962
1	2132	6963
1	2104	6964
1	2069	6965
1	2025	6966
1	1975	6967
1	1934	6968
1	1895	6969
1	1867	6970
1	1857	6971
1	1856	6972
1	1855	6973
1	1856	6974
1	1870	6975
1	1885	6976
1	1899	6977
1	1913	6978
1	1917	6979
1	1908	6980
1	1881	6981
1	1856	6982
1	1841	6983
1	1829	6984
1	1818	6985
1	1827	6986
1	1849	6987
1	1880	6988
1	1916	6989
1	1961	6990
1	2001	6991
1	2032	6992
1	2055	6993
1	2070	6994
1	2076	6995
1	2063	6996
1	2034	6997
1	2000	6998
1	1950	6999
1	1876	7000
1	1826	7001
1	1763	7002
1	1708	7003
1	1661	7004
1	1636	7005
1	1619	7006
1	1618	7007
1	1634	7008
1	1661	7009
1	1698	7010
1	1729	7011
1	1756	7012
1	1776	7013
1	1791	7014
1	1791	7015
1	1774	7016
1	1739	7017
1	1692	7018
1	1644	7019
1	1595	7020
1	1535	7021
1	1467	7022
1	1410	7023
1	1366	7024
1	1337	7025
1	1324	7026
1	1338	7027
1	1372	7028
1	1415	7029
1	1459	7030
1	1491	7031
1	1537	7032
1	1583	7033
1	1629	7034
1	1659	7035
1	1685	7036
1	1712	7037
1	1722	7038
1	1724	7039
1	1706	7040
1	1684	7041
1	1652	7042
1	1616	7043
1	1580	7044
1	1529	7045
1	1503	7046
1	1476	7047
1	1458	7048
1	1450	7049
1	1463	7050
1	1478	7051
1	1503	7052
1	1536	7053
1	1569	7054
1	1598	7055
1	1625	7056
1	1651	7057
1	1671	7058
1	1677	7059
1	1660	7060
1	1637	7061
1	1597	7062
1	1539	7063
1	1474	7064
1	1410	7065
1	1345	7066
1	1302	7067
1	1293	7068
1	1308	7069
1	1335	7070
1	1375	7071
1	1431	7072
1	1488	7073
1	1539	7074
1	1580	7075
1	1611	7076
1	1648	7077
1	1678	7078
1	1691	7079
1	1698	7080
1	1684	7081
1	1657	7082
1	1625	7083
1	1583	7084
1	1546	7085
1	1517	7086
1	1494	7087
1	1482	7088
1	1489	7089
1	1499	7090
1	1517	7091
1	1541	7092
1	1567	7093
1	1594	7094
1	1621	7095
1	1634	7096
1	1634	7097
1	1622	7098
1	1598	7099
1	1559	7100
1	1514	7101
1	1464	7102
1	1424	7103
1	1382	7104
1	1347	7105
1	1333	7106
1	1333	7107
1	1346	7108
1	1373	7109
1	1432	7110
1	1491	7111
1	1551	7112
1	1607	7113
1	1661	7114
1	1716	7115
1	1764	7116
1	1800	7117
1	1831	7118
1	1837	7119
1	1790	7120
1	1742	7121
1	1679	7122
1	1608	7123
1	1541	7124
1	1489	7125
1	1440	7126
1	1407	7127
1	1382	7128
1	1373	7129
1	1382	7130
1	1399	7131
1	1424	7132
1	1436	7133
1	1450	7134
1	1464	7135
1	1477	7136
1	1490	7137
1	1500	7138
1	1502	7139
1	1497	7140
1	1487	7141
1	1477	7142
1	1469	7143
1	1466	7144
1	1455	7145
1	1449	7146
1	1451	7147
1	1472	7148
1	1501	7149
1	1544	7150
1	1579	7151
1	1620	7152
1	1656	7153
1	1687	7154
1	1713	7155
1	1718	7156
1	1713	7157
1	1698	7158
1	1672	7159
1	1642	7160
1	1603	7161
1	1567	7162
1	1535	7163
1	1500	7164
1	1461	7165
1	1452	7166
1	1463	7167
1	1478	7168
1	1503	7169
1	1548	7170
1	1583	7171
1	1615	7172
1	1639	7173
1	1665	7174
1	1686	7175
1	1690	7176
1	1678	7177
1	1651	7178
1	1622	7179
1	1585	7180
1	1559	7181
1	1537	7182
1	1515	7183
1	1490	7184
1	1474	7185
1	1450	7186
1	1430	7187
1	1418	7188
1	1416	7189
1	1417	7190
1	1430	7191
1	1457	7192
1	1488	7193
1	1522	7194
1	1555	7195
1	1581	7196
1	1599	7197
1	1613	7198
1	1625	7199
1	1634	7200
1	1620	7201
1	1596	7202
1	1566	7203
1	1531	7204
1	1498	7205
1	1471	7206
1	1455	7207
1	1454	7208
1	1463	7209
1	1479	7210
1	1505	7211
1	1545	7212
1	1587	7213
1	1626	7214
1	1661	7215
1	1677	7216
1	1674	7217
1	1661	7218
1	1650	7219
1	1642	7260
1	1581	7261
1	1526	7262
1	1468	7263
1	1422	7264
1	1384	7265
1	1369	7266
1	1364	7267
1	1373	7268
1	1404	7269
1	1450	7270
1	1497	7271
1	1562	7272
1	1632	7273
1	1690	7274
1	1746	7275
1	1779	7276
1	1803	7277
1	1823	7278
1	1831	7279
1	1633	7220
1	1611	7221
1	1595	7222
1	1584	7223
1	1569	7224
1	1539	7225
1	1525	7226
1	1516	7227
1	1515	7228
1	1525	7229
1	1543	7230
1	1559	7231
1	1568	7232
1	1576	7233
1	1590	7234
1	1584	7235
1	1580	7236
1	1563	7237
1	1542	7238
1	1526	7239
1	1503	7240
1	1479	7241
1	1451	7242
1	1430	7243
1	1413	7244
1	1409	7245
1	1417	7246
1	1435	7247
1	1459	7248
1	1495	7249
1	1544	7250
1	1597	7251
1	1647	7252
1	1694	7253
1	1733	7254
1	1760	7255
1	1766	7256
1	1757	7257
1	1726	7258
1	1686	7259
1	1818	7280
1	1787	7281
1	1747	7282
1	1703	7283
1	1660	7284
1	1603	7285
1	1555	7286
1	1505	7287
1	1467	7288
1	1439	7289
1	1438	7290
1	1449	7291
1	1464	7292
1	1492	7293
1	1529	7294
1	1567	7295
1	1607	7296
1	1638	7297
1	1658	7298
1	1660	7299
1	1643	7300
1	1620	7301
1	1596	7302
1	1572	7303
1	1548	7304
1	1539	7305
1	1529	7306
1	1532	7307
1	1546	7308
1	1566	7309
1	1590	7310
1	1619	7311
1	1652	7312
1	1687	7313
1	1718	7314
1	1738	7315
1	1751	7316
1	1757	7317
1	1756	7318
1	1738	7319
1	1610	7340
1	1601	7341
1	1586	7342
1	1567	7343
1	1540	7344
1	1502	7345
1	1478	7346
1	1466	7347
1	1475	7348
1	1494	7349
1	1528	7350
1	1572	7351
1	1611	7352
1	1647	7353
1	1672	7354
1	1686	7355
1	1691	7356
1	1688	7357
1	1681	7358
1	1669	7359
1	1717	7320
1	1679	7321
1	1627	7322
1	1568	7323
1	1517	7324
1	1483	7325
1	1463	7326
1	1448	7327
1	1435	7328
1	1430	7329
1	1442	7330
1	1463	7331
1	1499	7332
1	1531	7333
1	1571	7334
1	1594	7335
1	1607	7336
1	1617	7337
1	1620	7338
1	1616	7339
1	1646	7360
1	1629	7361
1	1607	7362
1	1581	7363
1	1547	7364
1	1526	7365
1	1508	7366
1	1503	7367
1	1507	7368
1	1521	7369
1	1544	7370
1	1581	7371
1	1628	7372
1	1685	7373
1	1746	7374
1	1823	7375
1	1878	7376
1	1937	7377
1	1985	7378
1	2024	7379
1	2051	7380
1	2066	7381
1	2079	7382
1	2093	7383
1	2101	7384
1	2106	7385
1	2115	7386
1	2124	7387
1	2132	7388
1	2133	7389
1	2113	7390
1	2094	7391
1	2063	7392
1	2021	7393
1	1971	7394
1	1913	7395
1	1836	7396
1	1737	7397
1	1634	7398
1	1518	7399
1	1396	7400
1	1269	7401
1	1162	7402
1	1075	7403
1	1007	7404
1	944	7405
1	915	7406
1	901	7407
1	909	7408
1	927	7409
1	962	7410
1	999	7411
1	1029	7412
1	1057	7413
1	1072	7414
1	1076	7415
1	1073	7416
1	1063	7417
1	1047	7418
1	1029	7419
1	1000	7420
1	979	7421
1	955	7422
1	944	7423
1	937	7424
1	946	7425
1	977	7426
1	1017	7427
1	1076	7428
1	1148	7429
1	1235	7430
1	1294	7431
1	1376	7432
1	1446	7433
1	1503	7434
1	1553	7435
1	1590	7436
1	1620	7437
1	1632	7438
1	1622	7439
1	1597	7440
1	1563	7441
1	1526	7442
1	1489	7443
1	1472	7444
1	1465	7445
1	1472	7446
1	1488	7447
1	1514	7448
1	1541	7449
1	1562	7450
1	1578	7451
1	1600	7452
1	1620	7453
1	1636	7454
1	1660	7455
1	1671	7456
1	1672	7457
1	1660	7458
1	1643	7459
1	1619	7460
1	1594	7461
1	1572	7462
1	1548	7463
1	1530	7464
1	1521	7465
1	1521	7466
1	1529	7467
1	1546	7468
1	1580	7469
1	1622	7470
1	1659	7471
1	1697	7472
1	1738	7473
1	1782	7474
1	1825	7475
1	1859	7476
1	1880	7477
1	1890	7478
1	1890	7479
1	1868	7500
1	1824	7501
1	1764	7502
1	1710	7503
1	1655	7504
1	1607	7505
1	1574	7506
1	1555	7507
1	1555	7508
1	1567	7509
1	1593	7510
1	1626	7511
1	1672	7512
1	1719	7513
1	1765	7514
1	1821	7515
1	1860	7516
1	1891	7517
1	1908	7518
1	1913	7519
1	1863	7480
1	1843	7481
1	1812	7482
1	1775	7483
1	1738	7484
1	1711	7485
1	1679	7486
1	1652	7487
1	1634	7488
1	1626	7489
1	1634	7490
1	1657	7491
1	1681	7492
1	1713	7493
1	1762	7494
1	1817	7495
1	1859	7496
1	1892	7497
1	1898	7498
1	1890	7499
1	1904	7520
1	1886	7521
1	1862	7522
1	1841	7523
1	1815	7524
1	1775	7525
1	1755	7526
1	1740	7527
1	1733	7528
1	1737	7529
1	1759	7530
1	1786	7531
1	1818	7532
1	1850	7533
1	1886	7534
1	1897	7535
1	1909	7536
1	1913	7537
1	1908	7538
1	1887	7539
1	1860	7540
1	1841	7541
1	1826	7542
1	1819	7543
1	1817	7544
1	1817	7545
1	1823	7546
1	1832	7547
1	1843	7548
1	1869	7549
1	1906	7550
1	1950	7551
1	1998	7552
1	2032	7553
1	2063	7554
1	2079	7555
1	2079	7556
1	2075	7557
1	2066	7558
1	2051	7559
1	2030	7560
1	1998	7561
1	1952	7562
1	1906	7563
1	1863	7564
1	1826	7565
1	1800	7566
1	1791	7567
1	1796	7568
1	1828	7569
1	1868	7570
1	1900	7571
1	1950	7572
1	2000	7573
1	2051	7574
1	2100	7575
1	2132	7576
1	2157	7577
1	2171	7578
1	2171	7579
1	2155	7580
1	2124	7581
1	2089	7582
1	2052	7583
1	2021	7584
1	1989	7585
1	1974	7586
1	1969	7587
1	1972	7588
1	1983	7589
1	2012	7590
1	2038	7591
1	2074	7592
1	2116	7593
1	2166	7594
1	2210	7595
1	2243	7596
1	2253	7597
1	2241	7598
1	2210	7599
1	2156	7600
1	2111	7601
1	2070	7602
1	2037	7603
1	2004	7604
1	1985	7605
1	1960	7606
1	1947	7607
1	1944	7608
1	1956	7609
1	1989	7610
1	2026	7611
1	2055	7612
1	2076	7613
1	2090	7614
1	2097	7615
1	2101	7616
1	2096	7617
1	2079	7618
1	2060	7619
1	2044	7620
1	2013	7621
1	1980	7622
1	1952	7623
1	1931	7624
1	1917	7625
1	1896	7626
1	1877	7627
1	1859	7628
1	1854	7629
1	1856	7630
1	1867	7631
1	1883	7632
1	1903	7633
1	1924	7634
1	1937	7635
1	1948	7636
1	1946	7637
1	1933	7638
1	1919	7639
1	1875	7640
1	1826	7641
1	1764	7642
1	1711	7643
1	1651	7644
1	1602	7645
1	1565	7646
1	1541	7647
1	1541	7648
1	1559	7649
1	1607	7650
1	1656	7651
1	1706	7652
1	1757	7653
1	1808	7654
1	1843	7655
1	1856	7656
1	1843	7657
1	1813	7658
1	1766	7659
1	1714	7660
1	1686	7661
1	1651	7662
1	1618	7663
1	1593	7664
1	1579	7665
1	1581	7666
1	1585	7667
1	1596	7668
1	1621	7669
1	1652	7670
1	1692	7671
1	1734	7672
1	1767	7673
1	1796	7674
1	1803	7675
1	1792	7676
1	1770	7677
1	1738	7678
1	1701	7679
1	1665	7680
1	1625	7681
1	1581	7682
1	1546	7683
1	1527	7684
1	1520	7685
1	1519	7686
1	1525	7687
1	1533	7688
1	1555	7689
1	1582	7690
1	1615	7691
1	1649	7692
1	1684	7693
1	1712	7694
1	1737	7695
1	1741	7696
1	1731	7697
1	1704	7698
1	1668	7699
1	1628	7700
1	1581	7701
1	1539	7702
1	1489	7703
1	1442	7704
1	1398	7705
1	1376	7706
1	1362	7707
1	1348	7708
1	1351	7709
1	1382	7710
1	1423	7711
1	1464	7712
1	1506	7713
1	1554	7714
1	1598	7715
1	1638	7716
1	1674	7717
1	1700	7718
1	1714	7719
1	1712	7720
1	1711	7721
1	1709	7722
1	1700	7723
1	1685	7724
1	1665	7725
1	1639	7726
1	1620	7727
1	1610	7728
1	1607	7729
1	1607	7730
1	1609	7731
1	1617	7732
1	1625	7733
1	1633	7734
1	1643	7735
1	1652	7736
1	1656	7737
1	1655	7738
1	1649	7739
1	1638	7740
1	1625	7741
1	1607	7742
1	1581	7743
1	1555	7744
1	1534	7745
1	1526	7746
1	1529	7747
1	1539	7748
1	1565	7749
1	1624	7750
1	1664	7751
1	1726	7752
1	1779	7753
1	1832	7754
1	1862	7755
1	1883	7756
1	1872	7757
1	1848	7758
1	1796	7759
1	1733	7760
1	1661	7761
1	1593	7762
1	1523	7763
1	1451	7764
1	1371	7765
1	1332	7766
1	1311	7767
1	1308	7768
1	1328	7769
1	1371	7770
1	1430	7771
1	1488	7772
1	1539	7773
1	1589	7774
1	1634	7775
1	1680	7776
1	1714	7777
1	1736	7778
1	1733	7779
1	1699	7780
1	1664	7781
1	1619	7782
1	1576	7783
1	1536	7784
1	1517	7785
1	1508	7786
1	1517	7787
1	1539	7788
1	1557	7789
1	1580	7790
1	1607	7791
1	1634	7792
1	1661	7793
1	1690	7794
1	1711	7795
1	1727	7796
1	1742	7797
1	1754	7798
1	1756	7799
1	1751	7800
1	1721	7801
1	1684	7802
1	1638	7803
1	1593	7804
1	1553	7805
1	1520	7806
1	1502	7807
1	1489	7808
1	1488	7809
1	1503	7810
1	1530	7811
1	1570	7812
1	1610	7813
1	1649	7814
1	1690	7815
1	1715	7816
1	1725	7817
1	1718	7818
1	1698	7819
1	1661	7820
1	1612	7821
1	1557	7822
1	1506	7823
1	1458	7824
1	1416	7825
1	1402	7826
1	1410	7827
1	1431	7828
1	1469	7829
1	1507	7830
1	1564	7831
1	1607	7832
1	1647	7833
1	1692	7834
1	1712	7835
1	1723	7836
1	1724	7837
1	1711	7838
1	1686	7839
1	1652	7840
1	1620	7841
1	1585	7842
1	1548	7843
1	1513	7844
1	1479	7845
1	1456	7846
1	1443	7847
1	1449	7848
1	1476	7849
1	1503	7850
1	1530	7851
1	1553	7852
1	1578	7853
1	1606	7854
1	1634	7855
1	1645	7856
1	1651	7857
1	1648	7858
1	1636	7859
1	1616	7860
1	1601	7861
1	1581	7862
1	1567	7863
1	1555	7864
1	1542	7865
1	1532	7866
1	1533	7867
1	1544	7868
1	1566	7869
1	1596	7870
1	1634	7871
1	1682	7872
1	1727	7873
1	1763	7874
1	1786	7875
1	1800	7876
1	1796	7877
1	1779	7878
1	1746	7879
1	1757	7900
1	1722	7901
1	1688	7902
1	1660	7903
1	1628	7904
1	1594	7905
1	1569	7906
1	1548	7907
1	1544	7908
1	1555	7909
1	1584	7910
1	1620	7911
1	1654	7912
1	1682	7913
1	1703	7914
1	1720	7915
1	1721	7916
1	1721	7917
1	1708	7918
1	1688	7919
1	1707	7880
1	1660	7881
1	1607	7882
1	1550	7883
1	1499	7884
1	1456	7885
1	1416	7886
1	1384	7887
1	1376	7888
1	1383	7889
1	1409	7890
1	1450	7891
1	1494	7892
1	1541	7893
1	1592	7894
1	1643	7895
1	1692	7896
1	1734	7897
1	1764	7898
1	1769	7899
1	1698	7940
1	1647	7941
1	1595	7942
1	1553	7943
1	1510	7944
1	1472	7945
1	1440	7946
1	1422	7947
1	1415	7948
1	1426	7949
1	1456	7950
1	1499	7951
1	1535	7952
1	1578	7953
1	1625	7954
1	1665	7955
1	1701	7956
1	1725	7957
1	1736	7958
1	1735	7959
1	1660	7920
1	1633	7921
1	1599	7922
1	1574	7923
1	1562	7924
1	1562	7925
1	1574	7926
1	1598	7927
1	1632	7928
1	1665	7929
1	1692	7930
1	1710	7931
1	1728	7932
1	1751	7933
1	1770	7934
1	1778	7935
1	1783	7936
1	1776	7937
1	1757	7938
1	1737	7939
1	1728	7960
1	1698	7961
1	1665	7962
1	1621	7963
1	1566	7964
1	1512	7965
1	1476	7966
1	1459	7967
1	1461	7968
1	1478	7969
1	1507	7970
1	1548	7971
1	1592	7972
1	1641	7973
1	1686	7974
1	1717	7975
1	1718	7976
1	1701	7977
1	1670	7978
1	1630	7979
1	1581	7980
1	1533	7981
1	1477	7982
1	1428	7983
1	1384	7984
1	1366	7985
1	1366	7986
1	1384	7987
1	1422	7988
1	1468	7989
1	1529	7990
1	1591	7991
1	1660	7992
1	1723	7993
1	1773	7994
1	1813	7995
1	1838	7996
1	1843	7997
1	1843	7998
1	1841	7999
1	1824	8000
1	1796	8000
1	1762	8002
1	1724	8003
1	1697	8004
1	1686	8005
1	1688	8006
1	1715	8007
1	1764	8008
1	1834	8009
1	1906	8010
1	1993	8011
1	2079	8012
1	2168	8013
1	2258	8013
1	2323	8015
1	2358	8016
1	2364	8016
1	2340	8018
1	2287	8019
1	2210	8020
1	2112	8021
1	2016	8022
1	1922	8023
1	1828	8024
1	1738	8025
1	1654	8026
1	1568	8027
1	1482	8028
1	1395	8029
1	1310	8029
1	1229	8031
1	1175	8032
1	1130	8032
1	1097	8034
1	1063	8035
1	1030	8036
1	989	8037
1	939	8038
1	887	8039
1	829	8040
1	782	8041
1	738	8042
1	703	8043
1	679	8044
1	669	8045
1	678	8045
1	706	8047
1	749	8048
1	810	8048
1	887	8050
1	963	8051
1	1047	8052
1	1125	8053
1	1197	8054
1	1259	8055
1	1319	8056
1	1372	8057
1	1426	8058
1	1476	8059
1	1513	8060
1	1541	8061
1	1557	8061
1	1557	8063
1	1539	8064
1	1512	8064
1	1476	8066
1	1450	8067
1	1450	8068
1	1479	8069
1	1528	8070
1	1580	8071
1	1619	8072
1	1659	8073
1	1697	8074
1	1718	8074
1	1717	8076
1	1699	8077
1	1671	8077
1	1638	8079
1	1594	8080
1	1535	8080
1	1476	8082
1	1424	8083
1	1383	8084
1	1363	8085
1	1359	8086
1	1361	8087
1	1374	8088
1	1405	8089
1	1443	8090
1	1499	8090
1	1559	8092
1	1611	8093
1	1657	8093
1	1698	8095
1	1723	8096
1	1739	8096
1	1750	8098
1	1741	8099
1	1718	8100
1	1692	8101
1	1661	8102
1	1630	8103
1	1603	8104
1	1579	8105
1	1559	8106
1	1555	8106
1	1567	8108
1	1589	8109
1	1618	8109
1	1639	8111
1	1678	8112
1	1720	8113
1	1764	8114
1	1822	8115
1	1882	8116
1	1922	8117
1	1948	8118
1	1952	8119
1	1764	8140
1	1751	8141
1	1737	8141
1	1716	8143
1	1693	8144
1	1672	8145
1	1673	8146
1	1669	8147
1	1661	8148
1	1662	8149
1	1660	8150
1	1667	8151
1	1691	8152
1	1724	8153
1	1759	8154
1	1787	8154
1	1798	8156
1	1801	8157
1	1786	8157
1	1750	8159
1	1935	8120
1	1893	8121
1	1844	8122
1	1789	8122
1	1733	8124
1	1677	8125
1	1628	8125
1	1590	8127
1	1566	8128
1	1560	8129
1	1571	8130
1	1597	8131
1	1626	8132
1	1652	8133
1	1688	8134
1	1712	8135
1	1738	8136
1	1764	8137
1	1776	8138
1	1774	8138
1	1711	8160
1	1688	8161
1	1674	8162
1	1665	8163
1	1661	8164
1	1662	8165
1	1675	8166
1	1701	8167
1	1738	8168
1	1781	8169
1	1843	8170
1	1898	8170
1	1959	8172
1	2014	8173
1	2066	8173
1	2118	8175
1	2165	8176
1	2183	8177
1	2183	8178
1	2165	8179
1	1957	8200
1	1934	8201
1	1917	8202
1	1903	8203
1	1891	8204
1	1885	8205
1	1895	8206
1	1898	8207
1	1909	8208
1	1936	8209
1	1962	8210
1	1994	8211
1	2026	8212
1	2062	8213
1	2097	8214
1	2125	8215
1	2131	8216
1	2127	8217
1	2111	8218
1	2087	8219
1	2131	8180
1	2081	8181
1	2023	8182
1	1959	8183
1	1898	8184
1	1853	8185
1	1817	8186
1	1798	8186
1	1791	8188
1	1793	8189
1	1813	8189
1	1843	8191
1	1877	8192
1	1917	8193
1	1948	8194
1	1974	8195
1	1992	8196
1	1999	8197
1	1994	8198
1	1976	8199
1	2058	8220
1	2027	8221
1	1991	8222
1	1952	8223
1	1922	8224
1	1896	8225
1	1886	8226
1	1895	8227
1	1922	8228
1	1965	8229
1	2014	8230
1	2061	8231
1	2117	8232
1	2170	8233
1	2209	8234
1	2222	8235
1	2233	8236
1	2212	8237
1	2183	8238
1	2146	8239
1	2084	8240
1	2009	8241
1	1924	8242
1	1847	8243
1	1773	8244
1	1729	8245
1	1703	8246
1	1711	8247
1	1737	8248
1	1773	8249
1	1819	8250
1	1873	8251
1	1922	8252
1	1966	8253
1	2001	8254
1	2026	8255
1	2034	8256
1	2025	8257
1	1996	8258
1	1949	8259
1	1791	8280
1	1760	8281
1	1712	8282
1	1660	8283
1	1607	8284
1	1566	8285
1	1541	8286
1	1535	8287
1	1544	8288
1	1562	8289
1	1586	8290
1	1616	8291
1	1656	8292
1	1701	8293
1	1741	8294
1	1782	8295
1	1820	8296
1	1834	8297
1	1821	8298
1	1783	8299
1	1894	8260
1	1821	8261
1	1752	8262
1	1686	8263
1	1625	8264
1	1577	8265
1	1559	8266
1	1553	8267
1	1559	8268
1	1581	8269
1	1621	8270
1	1674	8271
1	1731	8272
1	1787	8273
1	1832	8274
1	1860	8275
1	1864	8276
1	1858	8277
1	1845	8278
1	1825	8279
1	1732	8300
1	1670	8301
1	1613	8302
1	1562	8303
1	1512	8304
1	1471	8305
1	1435	8306
1	1410	8307
1	1405	8308
1	1424	8309
1	1450	8310
1	1500	8311
1	1546	8312
1	1600	8313
1	1656	8314
1	1698	8315
1	1724	8316
1	1731	8317
1	1716	8318
1	1679	8319
1	1580	8340
1	1555	8341
1	1528	8342
1	1490	8343
1	1458	8344
1	1445	8345
1	1448	8346
1	1462	8347
1	1485	8348
1	1516	8349
1	1556	8350
1	1590	8351
1	1621	8352
1	1654	8353
1	1682	8354
1	1699	8355
1	1715	8356
1	1713	8357
1	1698	8358
1	1669	8359
1	1631	8320
1	1574	8321
1	1526	8322
1	1480	8323
1	1435	8324
1	1398	8325
1	1395	8326
1	1403	8327
1	1424	8328
1	1454	8329
1	1492	8330
1	1526	8331
1	1555	8332
1	1583	8333
1	1607	8334
1	1620	8335
1	1631	8336
1	1626	8337
1	1610	8338
1	1594	8339
1	1636	8360
1	1599	8361
1	1566	8362
1	1539	8363
1	1516	8364
1	1505	8365
1	1504	8366
1	1524	8367
1	1548	8368
1	1582	8369
1	1626	8370
1	1677	8371
1	1716	8372
1	1751	8373
1	1778	8374
1	1788	8375
1	1782	8376
1	1765	8377
1	1738	8378
1	1697	8379
1	1647	8380
1	1584	8381
1	1526	8382
1	1471	8383
1	1426	8384
1	1395	8385
1	1372	8386
1	1373	8387
1	1398	8388
1	1436	8389
1	1481	8390
1	1530	8391
1	1581	8392
1	1629	8393
1	1665	8394
1	1699	8395
1	1712	8396
1	1728	8397
1	1727	8398
1	1710	8399
1	1683	8400
1	1647	8401
1	1602	8402
1	1560	8403
1	1531	8404
1	1517	8405
1	1517	8406
1	1529	8407
1	1541	8408
1	1554	8409
1	1574	8410
1	1587	8411
1	1616	8412
1	1645	8413
1	1664	8414
1	1688	8415
1	1713	8416
1	1730	8417
1	1736	8418
1	1713	8419
1	1684	8420
1	1643	8421
1	1589	8422
1	1529	8423
1	1475	8424
1	1427	8425
1	1394	8426
1	1379	8427
1	1391	8428
1	1420	8429
1	1454	8430
1	1513	8431
1	1577	8432
1	1623	8433
1	1681	8434
1	1706	8435
1	1716	8436
1	1709	8437
1	1682	8438
1	1638	8439
1	1581	8440
1	1520	8441
1	1472	8442
1	1438	8443
1	1417	8444
1	1407	8445
1	1415	8446
1	1429	8447
1	1450	8448
1	1476	8449
1	1501	8450
1	1529	8451
1	1558	8452
1	1592	8453
1	1629	8454
1	1660	8455
1	1669	8456
1	1661	8457
1	1643	8458
1	1618	8459
1	1592	8460
1	1571	8461
1	1540	8462
1	1508	8463
1	1480	8464
1	1463	8465
1	1458	8466
1	1466	8467
1	1487	8468
1	1519	8469
1	1553	8470
1	1575	8471
1	1608	8472
1	1647	8473
1	1683	8474
1	1711	8475
1	1728	8476
1	1726	8477
1	1712	8478
1	1684	8479
1	1642	8480
1	1584	8481
1	1526	8482
1	1472	8483
1	1430	8484
1	1409	8485
1	1399	8486
1	1420	8487
1	1454	8488
1	1503	8489
1	1557	8490
1	1618	8491
1	1670	8492
1	1714	8493
1	1744	8494
1	1762	8495
1	1763	8496
1	1746	8497
1	1713	8498
1	1679	8499
1	1634	8500
1	1582	8501
1	1537	8502
1	1491	8503
1	1458	8504
1	1437	8505
1	1438	8506
1	1450	8507
1	1476	8508
1	1513	8509
1	1555	8510
1	1599	8511
1	1639	8512
1	1675	8513
1	1700	8514
1	1724	8515
1	1736	8516
1	1738	8517
1	1725	8518
1	1701	8519
1	1662	8520
1	1630	8521
1	1585	8522
1	1543	8523
1	1504	8524
1	1482	8525
1	1467	8526
1	1464	8527
1	1476	8528
1	1503	8529
1	1544	8530
1	1584	8531
1	1631	8532
1	1662	8533
1	1695	8534
1	1720	8535
1	1742	8536
1	1739	8537
1	1724	8538
1	1704	8539
1	1674	8540
1	1647	8541
1	1621	8542
1	1597	8543
1	1578	8544
1	1567	8545
1	1574	8546
1	1592	8547
1	1610	8548
1	1631	8549
1	1647	8550
1	1674	8551
1	1690	8552
1	1712	8553
1	1731	8554
1	1746	8555
1	1747	8556
1	1736	8557
1	1703	8558
1	1659	8559
1	1608	8560
1	1554	8561
1	1505	8562
1	1476	8563
1	1453	8564
1	1449	8565
1	1458	8566
1	1476	8567
1	1500	8568
1	1525	8569
1	1555	8570
1	1590	8571
1	1626	8572
1	1661	8573
1	1697	8574
1	1717	8575
1	1712	8576
1	1693	8577
1	1656	8578
1	1607	8579
1	1553	8580
1	1507	8581
1	1461	8582
1	1421	8583
1	1384	8584
1	1372	8585
1	1373	8586
1	1403	8587
1	1442	8588
1	1491	8589
1	1546	8590
1	1599	8591
1	1647	8592
1	1686	8593
1	1711	8594
1	1715	8595
1	1711	8596
1	1679	8597
1	1635	8598
1	1585	8599
1	1541	8600
1	1503	8601
1	1481	8602
1	1472	8603
1	1472	8604
1	1483	8605
1	1494	8606
1	1525	8607
1	1557	8608
1	1603	8609
1	1643	8610
1	1691	8611
1	1737	8612
1	1779	8613
1	1818	8614
1	1845	8615
1	1862	8616
1	1864	8617
1	1856	8618
1	1844	8619
1	1831	8620
1	1801	8621
1	1790	8622
1	1782	8623
1	1791	8624
1	1818	8625
1	1859	8626
1	1911	8627
1	1976	8628
1	2052	8629
1	2122	8630
1	2182	8631
1	2244	8632
1	2290	8633
1	2315	8634
1	2319	8635
1	2297	8636
1	2246	8637
1	2166	8638
1	2066	8639
1	1944	8640
1	1799	8641
1	1657	8642
1	1512	8643
1	1375	8644
1	1254	8645
1	1152	8646
1	1078	8647
1	1031	8648
1	1017	8649
1	1019	8650
1	1031	8651
1	1046	8652
1	1058	8653
1	1058	8654
1	1058	8655
1	1065	8656
1	1063	8657
1	1058	8658
1	1043	8659
1	1018	8660
1	981	8661
1	944	8662
1	906	8663
1	882	8664
1	874	8665
1	874	8666
1	900	8667
1	936	8668
1	990	8669
1	1037	8670
1	1087	8671
1	1132	8672
1	1175	8673
1	1215	8674
1	1258	8675
1	1298	8676
1	1333	8677
1	1362	8678
1	1384	8679
1	1400	8680
1	1409	8681
1	1420	8682
1	1427	8683
1	1440	8684
1	1454	8685
1	1487	8686
1	1529	8687
1	1580	8688
1	1639	8689
1	1708	8690
1	1767	8691
1	1826	8692
1	1865	8693
1	1884	8694
1	1884	8695
1	1866	8696
1	1835	8697
1	1786	8698
1	1727	8699
1	1661	8700
1	1607	8701
1	1555	8702
1	1513	8703
1	1477	8704
1	1448	8705
1	1436	8706
1	1437	8707
1	1456	8708
1	1494	8709
1	1544	8710
1	1589	8711
1	1633	8712
1	1670	8713
1	1697	8714
1	1713	8715
1	1728	8716
1	1724	8717
1	1715	8718
1	1699	8719
1	1686	8740
1	1674	8741
1	1679	8742
1	1692	8743
1	1698	8744
1	1698	8745
1	1700	8746
1	1710	8747
1	1716	8748
1	1728	8749
1	1737	8750
1	1751	8751
1	1773	8752
1	1808	8753
1	1839	8754
1	1857	8755
1	1861	8756
1	1867	8757
1	1862	8758
1	1848	8759
1	1674	8720
1	1647	8721
1	1624	8722
1	1608	8723
1	1603	8724
1	1602	8725
1	1598	8726
1	1602	8727
1	1607	8728
1	1616	8729
1	1629	8730
1	1652	8731
1	1669	8732
1	1686	8733
1	1715	8734
1	1726	8735
1	1739	8736
1	1739	8737
1	1726	8738
1	1708	8739
1	1815	8760
1	1775	8761
1	1726	8762
1	1672	8763
1	1628	8764
1	1595	8765
1	1584	8766
1	1589	8767
1	1602	8768
1	1621	8769
1	1649	8770
1	1679	8771
1	1724	8772
1	1770	8773
1	1816	8774
1	1845	8775
1	1864	8776
1	1862	8777
1	1849	8778
1	1826	8779
1	1800	8780
1	1788	8781
1	1773	8782
1	1755	8783
1	1737	8784
1	1719	8785
1	1700	8786
1	1692	8787
1	1691	8788
1	1700	8789
1	1724	8790
1	1761	8791
1	1793	8792
1	1839	8793
1	1885	8794
1	1929	8795
1	1966	8796
1	1991	8797
1	2010	8798
1	2022	8799
1	2014	8800
1	1991	8801
1	1963	8802
1	1922	8803
1	1881	8804
1	1845	8805
1	1823	8806
1	1803	8807
1	1799	8808
1	1819	8809
1	1850	8810
1	1880	8811
1	1911	8812
1	1944	8813
1	1967	8814
1	1989	8815
1	2001	8816
1	2012	8817
1	2011	8818
1	2000	8819
1	1976	8820
1	1960	8821
1	1935	8822
1	1917	8823
1	1907	8824
1	1907	8825
1	1917	8826
1	1935	8827
1	1966	8828
1	2011	8829
1	2058	8830
1	2101	8831
1	2135	8832
1	2159	8833
1	2170	8834
1	2183	8835
1	2191	8836
1	2185	8837
1	2168	8838
1	2134	8839
1	2089	8840
1	2042	8841
1	2001	8842
1	1971	8843
1	1951	8844
1	1944	8845
1	1939	8846
1	1939	8847
1	1939	8848
1	1940	8849
1	1948	8850
1	1971	8851
1	1995	8852
1	2021	8853
1	2042	8854
1	2055	8855
1	2066	8856
1	2071	8857
1	2064	8858
1	2042	8859
1	2012	8860
1	1973	8861
1	1927	8862
1	1886	8863
1	1854	8864
1	1827	8865
1	1819	8866
1	1817	8867
1	1812	8868
1	1803	8869
1	1811	8870
1	1822	8871
1	1842	8872
1	1866	8873
1	1895	8874
1	1922	8875
1	1935	8876
1	1934	8877
1	1926	8878
1	1909	8879
1	1883	8880
1	1854	8881
1	1814	8882
1	1769	8883
1	1738	8884
1	1712	8885
1	1693	8886
1	1684	8887
1	1682	8888
1	1686	8889
1	1697	8890
1	1706	8891
1	1722	8892
1	1743	8893
1	1760	8894
1	1762	8895
1	1753	8896
1	1733	8897
1	1707	8898
1	1673	8899
1	1642	8900
1	1615	8901
1	1599	8902
1	1582	8903
1	1567	8904
1	1551	8905
1	1535	8906
1	1536	8907
1	1544	8908
1	1553	8909
1	1568	8910
1	1589	8911
1	1605	8912
1	1607	8913
1	1607	8914
1	1605	8915
1	1597	8916
1	1571	8917
1	1555	8918
1	1530	8919
1	1513	8920
1	1490	8921
1	1476	8922
1	1465	8923
1	1459	8924
1	1462	8925
1	1476	8926
1	1492	8927
1	1526	8928
1	1570	8929
1	1610	8930
1	1638	8931
1	1661	8932
1	1674	8933
1	1680	8934
1	1678	8935
1	1665	8936
1	1647	8937
1	1632	8938
1	1610	8939
1	1584	8940
1	1554	8941
1	1529	8942
1	1499	8943
1	1481	8944
1	1480	8945
1	1495	8946
1	1519	8947
1	1549	8948
1	1582	8949
1	1621	8950
1	1651	8951
1	1676	8952
1	1688	8953
1	1695	8954
1	1697	8955
1	1688	8956
1	1672	8957
1	1647	8958
1	1624	8959
1	1588	8960
1	1554	8961
1	1526	8962
1	1498	8963
1	1476	8964
1	1453	8965
1	1435	8966
1	1436	8967
1	1449	8968
1	1476	8969
1	1512	8970
1	1561	8971
1	1607	8972
1	1652	8973
1	1686	8974
1	1706	8975
1	1716	8976
1	1713	8977
1	1698	8978
1	1676	8979
1	1647	8980
1	1607	8981
1	1573	8982
1	1537	8983
1	1503	8984
1	1490	8985
1	1497	8986
1	1513	8987
1	1529	8988
1	1562	8989
1	1582	8990
1	1594	8991
1	1607	8992
1	1615	8993
1	1613	8994
1	1607	8995
1	1587	8996
1	1571	8997
1	1545	8998
1	1524	8999
1	1508	9000
1	1503	9001
1	1494	9002
1	1484	9003
1	1477	9004
1	1476	9005
1	1484	9006
1	1503	9007
1	1530	9008
1	1570	9009
1	1615	9010
1	1655	9011
1	1701	9012
1	1747	9013
1	1782	9014
1	1809	9015
1	1821	9016
1	1808	9017
1	1775	9018
1	1729	9019
1	1677	9020
1	1622	9021
1	1575	9022
1	1528	9023
1	1479	9024
1	1438	9025
1	1410	9026
1	1402	9027
1	1407	9028
1	1427	9029
1	1456	9030
1	1500	9031
1	1553	9032
1	1587	9033
1	1641	9034
1	1663	9035
1	1685	9036
1	1690	9037
1	1677	9038
1	1648	9039
1	1613	9040
1	1574	9041
1	1533	9042
1	1494	9043
1	1467	9044
1	1446	9045
1	1433	9046
1	1433	9047
1	1445	9048
1	1476	9049
1	1512	9050
1	1551	9051
1	1586	9052
1	1621	9053
1	1647	9054
1	1661	9055
1	1674	9056
1	1686	9057
1	1692	9058
1	1686	9059
1	1667	9060
1	1645	9061
1	1610	9062
1	1582	9063
1	1559	9064
1	1541	9065
1	1528	9066
1	1526	9067
1	1539	9068
1	1568	9069
1	1607	9070
1	1641	9071
1	1677	9072
1	1710	9073
1	1728	9074
1	1729	9075
1	1720	9076
1	1697	9077
1	1661	9078
1	1629	9079
1	1589	9080
1	1553	9081
1	1520	9082
1	1491	9083
1	1467	9084
1	1450	9085
1	1448	9086
1	1458	9087
1	1478	9088
1	1500	9089
1	1528	9090
1	1574	9091
1	1623	9092
1	1670	9093
1	1704	9094
1	1719	9095
1	1723	9096
1	1714	9097
1	1694	9098
1	1656	9099
1	1607	9100
1	1550	9101
1	1501	9102
1	1461	9103
1	1426	9104
1	1409	9105
1	1413	9106
1	1437	9107
1	1476	9108
1	1520	9109
1	1566	9110
1	1616	9111
1	1669	9112
1	1719	9113
1	1758	9114
1	1782	9115
1	1791	9116
1	1791	9117
1	1782	9118
1	1757	9119
1	1728	9120
1	1697	9121
1	1660	9122
1	1620	9123
1	1593	9124
1	1573	9125
1	1555	9126
1	1547	9127
1	1550	9128
1	1566	9129
1	1585	9130
1	1612	9131
1	1647	9132
1	1679	9133
1	1706	9134
1	1723	9135
1	1731	9136
1	1727	9137
1	1712	9138
1	1690	9139
1	1663	9140
1	1638	9141
1	1618	9142
1	1589	9143
1	1555	9144
1	1529	9145
1	1507	9146
1	1503	9147
1	1521	9148
1	1546	9149
1	1577	9150
1	1610	9151
1	1647	9152
1	1682	9153
1	1702	9154
1	1709	9155
1	1700	9156
1	1680	9157
1	1643	9158
1	1594	9159
1	1538	9160
1	1477	9161
1	1436	9162
1	1407	9163
1	1382	9164
1	1361	9165
1	1355	9166
1	1363	9167
1	1382	9168
1	1422	9169
1	1463	9170
1	1508	9171
1	1555	9172
1	1597	9173
1	1639	9174
1	1680	9175
1	1699	9176
1	1715	9177
1	1728	9178
1	1738	9179
1	1744	9180
1	1740	9181
1	1728	9182
1	1722	9183
1	1715	9184
1	1708	9185
1	1688	9186
1	1670	9187
1	1644	9188
1	1631	9189
1	1625	9190
1	1620	9191
1	1607	9192
1	1594	9193
1	1588	9194
1	1592	9195
1	1607	9196
1	1626	9197
1	1646	9198
1	1665	9199
1	1680	9200
1	1687	9201
1	1700	9202
1	1712	9203
1	1731	9204
1	1762	9205
1	1799	9206
1	1854	9207
1	1917	9208
1	1986	9209
1	2064	9210
1	2131	9211
1	2181	9212
1	2221	9213
1	2257	9214
1	2271	9215
1	2261	9216
1	2219	9217
1	2148	9218
1	2052	9219
1	1937	9220
1	1811	9221
1	1679	9222
1	1553	9223
1	1437	9224
1	1334	9225
1	1256	9226
1	1191	9227
1	1144	9228
1	1112	9229
1	1096	9230
1	1078	9231
1	1067	9232
1	1055	9233
1	1036	9234
1	1017	9235
1	984	9236
1	949	9237
1	914	9238
1	887	9239
1	861	9240
1	843	9241
1	835	9242
1	835	9243
1	846	9244
1	864	9245
1	898	9246
1	936	9247
1	983	9248
1	1046	9249
1	1112	9250
1	1179	9251
1	1250	9252
1	1321	9253
1	1392	9254
1	1438	9255
1	1469	9256
1	1485	9257
1	1491	9258
1	1494	9259
1	1490	9260
1	1485	9261
1	1481	9262
1	1472	9263
1	1472	9264
1	1485	9265
1	1502	9266
1	1523	9267
1	1555	9268
1	1593	9269
1	1623	9270
1	1660	9271
1	1686	9272
1	1711	9273
1	1731	9274
1	1744	9275
1	1751	9276
1	1751	9277
1	1742	9278
1	1721	9279
1	1687	9280
1	1643	9281
1	1607	9282
1	1578	9283
1	1545	9284
1	1516	9285
1	1495	9286
1	1481	9287
1	1474	9288
1	1490	9289
1	1517	9290
1	1553	9291
1	1598	9292
1	1647	9293
1	1700	9294
1	1748	9295
1	1767	9296
1	1770	9297
1	1761	9298
1	1738	9299
1	1714	9300
1	1687	9301
1	1657	9302
1	1633	9303
1	1618	9304
1	1613	9305
1	1625	9306
1	1643	9307
1	1672	9308
1	1713	9309
1	1756	9310
1	1787	9311
1	1815	9312
1	1824	9313
1	1820	9314
1	1817	9315
1	1817	9316
1	1793	9317
1	1764	9318
1	1738	9319
1	1709	9320
1	1683	9321
1	1656	9322
1	1620	9323
1	1590	9324
1	1570	9325
1	1564	9326
1	1581	9327
1	1619	9328
1	1674	9329
1	1723	9330
1	1775	9331
1	1822	9332
1	1843	9333
1	1871	9334
1	1883	9335
1	1891	9336
1	1893	9337
1	1882	9338
1	1859	9339
1	1824	9340
1	1775	9341
1	1729	9342
1	1688	9343
1	1660	9344
1	1641	9345
1	1634	9346
1	1646	9347
1	1670	9348
1	1707	9349
1	1743	9350
1	1793	9351
1	1845	9352
1	1895	9353
1	1934	9354
1	1957	9355
1	1953	9356
1	1934	9357
1	1895	9358
1	1843	9359
1	1788	9360
1	1743	9361
1	1697	9362
1	1660	9363
1	1631	9364
1	1620	9365
1	1633	9366
1	1657	9367
1	1686	9368
1	1715	9369
1	1754	9370
1	1782	9371
1	1816	9372
1	1842	9373
1	1865	9374
1	1877	9375
1	1892	9376
1	1896	9377
1	1897	9378
1	1895	9379
1	1886	9380
1	1875	9381
1	1865	9382
1	1856	9383
1	1855	9384
1	1856	9385
1	1855	9386
1	1865	9387
1	1881	9388
1	1899	9389
1	1922	9390
1	1960	9391
1	1988	9392
1	2021	9393
1	2051	9394
1	2075	9395
1	2092	9396
1	2105	9397
1	2111	9398
1	2104	9399
1	2086	9400
1	2061	9401
1	2030	9402
1	1999	9403
1	1971	9404
1	1953	9405
1	1962	9406
1	1974	9407
1	1989	9408
1	2006	9409
1	2029	9410
1	2048	9411
1	2061	9412
1	2069	9413
1	2070	9414
1	2057	9415
1	2024	9416
1	1981	9417
1	1937	9418
1	1897	9419
1	1869	9420
1	1854	9421
1	1843	9422
1	1835	9423
1	1823	9424
1	1818	9425
1	1826	9426
1	1845	9427
1	1882	9428
1	1940	9429
1	2003	9430
1	2062	9431
1	2119	9432
1	2166	9433
1	2198	9434
1	2222	9435
1	2232	9436
1	2213	9437
1	2171	9438
1	2120	9439
1	2052	9440
1	1979	9441
1	1912	9442
1	1854	9443
1	1796	9444
1	1754	9445
1	1727	9446
1	1721	9447
1	1726	9448
1	1739	9449
1	1760	9450
1	1782	9451
1	1803	9452
1	1832	9453
1	1857	9454
1	1886	9455
1	1903	9456
1	1904	9457
1	1894	9458
1	1869	9459
1	1832	9460
1	1780	9461
1	1739	9462
1	1703	9463
1	1667	9464
1	1634	9465
1	1625	9466
1	1634	9467
1	1652	9468
1	1674	9469
1	1701	9470
1	1727	9471
1	1755	9472
1	1773	9473
1	1779	9474
1	1775	9475
1	1754	9476
1	1729	9477
1	1694	9478
1	1657	9479
1	1629	9480
1	1612	9481
1	1590	9482
1	1564	9483
1	1538	9484
1	1503	9485
1	1481	9486
1	1474	9487
1	1476	9488
1	1495	9489
1	1525	9490
1	1556	9491
1	1597	9492
1	1642	9493
1	1681	9494
1	1710	9495
1	1731	9496
1	1738	9497
1	1733	9498
1	1715	9499
1	1695	9500
1	1665	9501
1	1630	9502
1	1592	9503
1	1566	9504
1	1552	9505
1	1533	9506
1	1530	9507
1	1538	9508
1	1555	9509
1	1571	9510
1	1596	9511
1	1615	9512
1	1630	9513
1	1638	9514
1	1647	9515
1	1648	9516
1	1646	9517
1	1638	9518
1	1633	9519
1	1625	9520
1	1602	9521
1	1580	9522
1	1546	9523
1	1513	9524
1	1494	9525
1	1499	9526
1	1511	9527
1	1538	9528
1	1566	9529
1	1593	9530
1	1607	9531
1	1625	9532
1	1641	9533
1	1647	9534
1	1646	9535
1	1634	9536
1	1625	9537
1	1615	9538
1	1598	9539
1	1573	9540
1	1539	9541
1	1502	9542
1	1476	9543
1	1468	9544
1	1472	9545
1	1482	9546
1	1503	9547
1	1528	9548
1	1553	9549
1	1577	9550
1	1593	9551
1	1620	9552
1	1647	9553
1	1673	9554
1	1695	9555
1	1713	9556
1	1711	9557
1	1688	9558
1	1660	9559
1	1626	9560
1	1596	9561
1	1566	9562
1	1531	9563
1	1508	9564
1	1499	9565
1	1485	9566
1	1486	9567
1	1495	9568
1	1517	9569
1	1550	9570
1	1590	9571
1	1625	9572
1	1661	9573
1	1694	9574
1	1718	9575
1	1736	9576
1	1748	9577
1	1754	9578
1	1756	9579
1	1751	9580
1	1733	9581
1	1712	9582
1	1692	9583
1	1672	9584
1	1660	9585
1	1652	9586
1	1635	9587
1	1620	9588
1	1628	9589
1	1641	9590
1	1664	9591
1	1687	9592
1	1710	9593
1	1721	9594
1	1724	9595
1	1712	9596
1	1700	9597
1	1679	9598
1	1646	9599
1	1607	9600
1	1574	9601
1	1540	9602
1	1506	9603
1	1474	9604
1	1450	9605
1	1448	9606
1	1461	9607
1	1490	9608
1	1530	9609
1	1579	9610
1	1620	9611
1	1675	9612
1	1724	9613
1	1754	9614
1	1773	9615
1	1775	9616
1	1755	9617
1	1718	9618
1	1677	9619
1	1638	9620
1	1610	9621
1	1598	9622
1	1597	9623
1	1600	9624
1	1607	9625
1	1600	9626
1	1593	9627
1	1587	9628
1	1593	9629
1	1598	9630
1	1611	9631
1	1615	9632
1	1608	9633
1	1613	9634
1	1608	9635
1	1602	9636
1	1586	9637
1	1566	9638
1	1536	9639
1	1503	9640
1	1484	9641
1	1466	9642
1	1457	9643
1	1456	9644
1	1472	9645
1	1499	9646
1	1520	9647
1	1546	9648
1	1580	9649
1	1607	9650
1	1644	9651
1	1685	9652
1	1722	9653
1	1759	9654
1	1780	9655
1	1783	9656
1	1784	9657
1	1765	9658
1	1739	9659
1	1701	9660
1	1670	9661
1	1628	9662
1	1589	9663
1	1559	9664
1	1542	9665
1	1536	9666
1	1549	9667
1	1574	9668
1	1602	9669
1	1637	9670
1	1670	9671
1	1706	9672
1	1738	9673
1	1767	9674
1	1789	9675
1	1793	9676
1	1787	9677
1	1775	9678
1	1762	9679
1	1742	9680
1	1719	9681
1	1691	9682
1	1660	9683
1	1631	9684
1	1608	9685
1	1597	9686
1	1598	9687
1	1608	9688
1	1633	9689
1	1658	9690
1	1686	9691
1	1705	9692
1	1716	9693
1	1725	9694
1	1723	9695
1	1716	9696
1	1719	9697
1	1712	9698
1	1697	9699
1	1668	9700
1	1630	9701
1	1598	9702
1	1579	9703
1	1567	9704
1	1573	9705
1	1593	9706
1	1625	9707
1	1674	9708
1	1732	9709
1	1791	9710
1	1844	9711
1	1873	9712
1	1881	9713
1	1871	9714
1	1845	9715
1	1791	9716
1	1729	9717
1	1661	9718
1	1592	9719
1	1526	9720
1	1476	9721
1	1437	9722
1	1423	9723
1	1422	9724
1	1435	9725
1	1455	9726
1	1487	9727
1	1518	9728
1	1553	9729
1	1581	9730
1	1615	9731
1	1655	9732
1	1691	9733
1	1715	9734
1	1726	9735
1	1729	9736
1	1716	9737
1	1688	9738
1	1665	9739
1	1635	9740
1	1607	9741
1	1584	9742
1	1561	9743
1	1547	9744
1	1544	9745
1	1550	9746
1	1567	9747
1	1589	9748
1	1615	9749
1	1652	9750
1	1700	9751
1	1736	9752
1	1754	9753
1	1764	9754
1	1769	9755
1	1763	9756
1	1746	9757
1	1725	9758
1	1700	9759
1	1662	9760
1	1620	9761
1	1584	9762
1	1557	9763
1	1533	9764
1	1526	9765
1	1539	9766
1	1560	9767
1	1592	9768
1	1633	9769
1	1677	9770
1	1730	9771
1	1783	9772
1	1836	9773
1	1877	9774
1	1908	9775
1	1922	9776
1	1940	9777
1	1950	9778
1	1959	9779
1	1963	9780
1	1970	9781
1	1966	9782
1	1961	9783
1	1968	9784
1	1976	9785
1	1994	9786
1	2016	9787
1	2029	9788
1	2036	9789
1	2026	9790
1	1998	9791
1	1963	9792
1	1919	9793
1	1857	9794
1	1775	9795
1	1682	9796
1	1561	9797
1	1439	9798
1	1320	9799
1	1219	9800
1	1134	9801
1	1058	9802
1	1005	9803
1	960	9804
1	940	9805
1	936	9806
1	957	9807
1	1001	9808
1	1045	9809
1	1097	9810
1	1150	9811
1	1202	9812
1	1246	9813
1	1278	9814
1	1291	9815
1	1294	9816
1	1287	9817
1	1259	9818
1	1227	9819
1	1189	9820
1	1154	9821
1	1119	9822
1	1087	9823
1	1074	9824
1	1073	9825
1	1099	9826
1	1152	9827
1	1216	9828
1	1291	9829
1	1364	9830
1	1442	9831
1	1529	9832
1	1600	9833
1	1657	9834
1	1688	9835
1	1700	9836
1	1697	9837
1	1688	9838
1	1673	9839
1	1647	9840
1	1613	9841
1	1579	9842
1	1544	9843
1	1528	9844
1	1520	9845
1	1530	9846
1	1559	9847
1	1607	9848
1	1660	9849
1	1713	9850
1	1759	9851
1	1799	9852
1	1836	9853
1	1859	9854
1	1869	9855
1	1869	9856
1	1847	9857
1	1800	9858
1	1742	9859
1	1687	9860
1	1638	9861
1	1597	9862
1	1559	9863
1	1534	9864
1	1525	9865
1	1516	9866
1	1528	9867
1	1543	9868
1	1565	9869
1	1594	9870
1	1628	9871
1	1656	9872
1	1691	9873
1	1722	9874
1	1743	9875
1	1762	9876
1	1766	9877
1	1755	9878
1	1730	9879
1	1818	9900
1	1800	9901
1	1783	9902
1	1764	9903
1	1750	9904
1	1741	9905
1	1738	9906
1	1740	9907
1	1746	9908
1	1752	9909
1	1762	9910
1	1765	9911
1	1787	9912
1	1816	9913
1	1839	9914
1	1851	9915
1	1856	9916
1	1841	9917
1	1814	9918
1	1780	9919
1	1699	9880
1	1671	9881
1	1656	9882
1	1643	9883
1	1638	9884
1	1643	9885
1	1660	9886
1	1680	9887
1	1705	9888
1	1734	9889
1	1759	9890
1	1775	9891
1	1792	9892
1	1817	9893
1	1836	9894
1	1849	9895
1	1855	9896
1	1859	9897
1	1854	9898
1	1841	9899
1	1752	9920
1	1728	9921
1	1709	9922
1	1704	9923
1	1712	9924
1	1726	9925
1	1742	9926
1	1764	9927
1	1796	9928
1	1842	9929
1	1873	9930
1	1906	9931
1	1924	9932
1	1933	9933
1	1945	9934
1	1923	9935
1	1906	9936
1	1873	9937
1	1843	9938
1	1817	9939
1	1949	9960
1	1922	9961
1	1895	9962
1	1874	9963
1	1866	9964
1	1858	9965
1	1861	9966
1	1871	9967
1	1895	9968
1	1932	9969
1	1976	9970
1	2014	9971
1	2052	9972
1	2079	9973
1	2090	9974
1	2088	9975
1	2075	9976
1	2050	9977
1	2014	9978
1	1975	9979
1	1785	9940
1	1751	9941
1	1723	9942
1	1703	9943
1	1701	9944
1	1716	9945
1	1751	9946
1	1795	9947
1	1856	9948
1	1920	9949
1	1971	9950
1	2013	9951
1	2052	9952
1	2079	9953
1	2097	9954
1	2103	9955
1	2084	9956
1	2064	9957
1	2028	9958
1	1993	9959
1	2030	10000
1	1972	10001
1	1927	10002
1	1895	10003
1	1871	10004
1	1863	10005
1	1869	10006
1	1872	10007
1	1886	10008
1	1904	10009
1	1926	10010
1	1949	10011
1	1974	10012
1	1991	10013
1	1993	10014
1	1979	10015
1	1949	10016
1	1918	10017
1	1877	10018
1	1842	10019
1	1940	9980
1	1908	9981
1	1890	9982
1	1880	9983
1	1887	9984
1	1908	9985
1	1935	9986
1	1965	9987
1	2005	9988
1	2048	9989
1	2089	9990
1	2142	9991
1	2184	9992
1	2230	9993
1	2260	9994
1	2266	9995
1	2255	9996
1	2215	9997
1	2162	9998
1	2097	9999
1	1843	10040
1	1769	10041
1	1699	10042
1	1633	10043
1	1577	10044
1	1533	10045
1	1503	10046
1	1502	10047
1	1511	10048
1	1531	10049
1	1566	10050
1	1611	10051
1	1655	10052
1	1688	10053
1	1716	10054
1	1736	10055
1	1738	10056
1	1733	10057
1	1718	10058
1	1687	10059
1	1813	10020
1	1793	10021
1	1780	10022
1	1776	10023
1	1779	10024
1	1791	10025
1	1822	10026
1	1860	10027
1	1899	10028
1	1946	10029
1	1989	10030
1	2025	10031
1	2061	10032
1	2083	10033
1	2088	10034
1	2076	10035
1	2052	10036
1	2013	10037
1	1961	10038
1	1906	10039
1	1643	10060
1	1589	10061
1	1547	10062
1	1503	10063
1	1472	10064
1	1454	10065
1	1476	10066
1	1502	10067
1	1529	10068
1	1559	10069
1	1589	10070
1	1617	10071
1	1650	10072
1	1684	10073
1	1701	10074
1	1712	10075
1	1705	10076
1	1688	10077
1	1662	10078
1	1639	10079
1	1614	10080
1	1600	10081
1	1580	10082
1	1559	10083
1	1540	10084
1	1521	10085
1	1505	10086
1	1501	10087
1	1507	10088
1	1530	10089
1	1559	10090
1	1581	10091
1	1603	10092
1	1620	10093
1	1631	10094
1	1634	10095
1	1634	10096
1	1625	10097
1	1608	10098
1	1589	10099
1	1573	10100
1	1559	10101
1	1555	10102
1	1559	10103
1	1577	10104
1	1602	10105
1	1631	10106
1	1662	10107
1	1687	10108
1	1706	10109
1	1721	10110
