#Date:= 2024-10-01T15:28:10.472106
#Sampling Rate(Hz):= 1000
#Labels:= LOD	ECG	TS
1	1734	20
1	1723	21
1	1700	22
1	1674	23
1	1645	24
1	1616	25
1	1596	26
1	1584	27
1	1582	28
1	1583	29
1	1293	30
1	1338	31
1	1429	32
1	1555	33
1	1700	34
1	1854	35
1	1989	36
1	2093	37
1	2162	38
1	2189	39
1	2170	40
1	2124	41
1	2048	42
1	1940	43
1	1808	44
1	1668	45
1	1529	46
1	1413	47
1	1330	48
1	1293	49
1	1310	50
1	1372	51
1	1482	52
1	1619	53
1	1764	54
1	1901	55
1	2019	56
1	2112	57
1	2177	58
1	2207	59
1	2203	60
1	2150	61
1	2053	62
1	1934	63
1	1802	64
1	1664	65
1	1539	66
1	1431	67
1	1346	68
1	1311	69
1	1322	70
1	1380	71
1	1477	72
1	1594	73
1	1724	74
1	1857	75
1	1974	76
1	2070	77
1	2133	78
1	2167	79
1	2094	100
1	2057	101
1	1989	102
1	1899	103
1	1789	104
1	1671	105
1	1555	106
1	1464	107
1	1411	108
1	1403	109
1	1438	110
1	1513	111
1	1613	112
1	1744	113
1	1895	114
1	2026	115
1	2150	116
1	2260	117
1	2329	118
1	2356	119
1	2156	80
1	2105	81
1	2024	82
1	1917	83
1	1791	84
1	1660	85
1	1548	86
1	1458	87
1	1396	88
1	1363	89
1	1382	90
1	1440	91
1	1528	92
1	1634	93
1	1749	94
1	1861	95
1	1958	96
1	2034	97
1	2086	98
1	2109	99
1	2343	120
1	2288	121
1	2188	122
1	2063	123
1	1913	124
1	1755	125
1	1611	126
1	1495	127
1	1415	128
1	1373	129
1	1384	130
1	1441	131
1	1540	132
1	1665	133
1	1817	134
1	1948	135
1	2070	136
1	2166	137
1	2245	138
1	2275	139
1	2264	140
1	2215	141
1	2142	142
1	2040	143
1	1922	144
1	1787	145
1	1662	146
1	1558	147
1	1487	148
1	1450	149
1	1456	150
1	1498	151
1	1568	152
1	1669	153
1	1790	154
1	1920	155
1	2039	156
1	2143	157
1	2220	158
1	2264	159
1	2255	160
1	2196	161
1	2115	162
1	2005	163
1	1881	164
1	1747	165
1	1639	166
1	1551	167
1	1489	168
1	1471	169
1	1492	170
1	1552	171
1	1634	172
1	1739	173
1	1868	174
1	1984	175
1	2096	176
1	2187	177
1	2253	178
1	2277	179
1	2265	180
1	2204	181
1	2115	182
1	1998	183
1	1860	184
1	1719	185
1	1602	186
1	1512	187
1	1466	188
1	1467	189
1	1507	190
1	1589	191
1	1710	192
1	1857	193
1	2009	194
1	2157	195
1	2282	196
1	2368	197
1	2428	198
1	2444	199
1	2415	200
1	2345	201
1	2243	202
1	2105	203
1	1951	204
1	1791	205
1	1643	206
1	1521	207
1	1432	208
1	1391	209
1	1402	210
1	1458	211
1	1555	212
1	1690	213
1	1850	214
1	2004	215
1	2151	216
1	2278	217
1	2372	218
1	2425	219
1	2247	240
1	2208	241
1	2127	242
1	2022	243
1	1895	244
1	1760	245
1	1634	246
1	1529	247
1	1454	248
1	1424	249
1	1433	250
1	1485	251
1	1577	252
1	1690	253
1	1825	254
1	1961	255
1	2081	256
1	2183	257
1	2255	258
1	2286	259
1	2422	220
1	2382	221
1	2300	222
1	2179	223
1	2043	224
1	1914	225
1	1780	226
1	1660	227
1	1566	228
1	1507	229
1	1498	230
1	1530	231
1	1584	232
1	1683	233
1	1798	234
1	1926	235
1	2043	236
1	2136	237
1	2206	238
1	2246	239
1	2209	280
1	2168	281
1	2090	282
1	1975	283
1	1842	284
1	1710	285
1	1587	286
1	1490	287
1	1426	288
1	1404	289
1	1431	290
1	1500	291
1	1603	292
1	1731	293
1	1877	294
1	2013	295
1	2143	296
1	2253	297
1	2323	298
1	2354	299
1	2273	260
1	2215	261
1	2125	262
1	1995	263
1	1855	264
1	1706	265
1	1570	266
1	1458	267
1	1381	268
1	1357	269
1	1384	270
1	1450	271
1	1546	272
1	1665	273
1	1799	274
1	1933	275
1	2050	276
1	2133	277
1	2192	278
1	2219	279
1	2345	300
1	2288	301
1	2183	302
1	2052	303
1	1907	304
1	1751	305
1	1608	306
1	1490	307
1	1407	308
1	1360	309
1	1359	310
1	1415	311
1	1513	312
1	1644	313
1	1782	314
1	1934	315
1	2066	316
1	2181	317
1	2273	318
1	2325	319
1	2332	340
1	2292	341
1	2205	342
1	2079	343
1	1924	344
1	1762	345
1	1611	346
1	1492	347
1	1412	348
1	1371	349
1	1393	350
1	1454	351
1	1531	352
1	1661	353
1	1783	354
1	1922	355
1	2026	356
1	2114	357
1	2169	358
1	2192	359
1	2188	340
1	2146	341
1	2067	342
1	1957	343
1	1827	344
1	1673	345
1	1549	346
1	1442	347
1	1371	348
1	1346	349
1	1372	350
1	1440	351
1	1531	352
1	1657	353
1	1803	354
1	1952	355
1	2090	356
1	2205	357
1	2291	358
1	2331	359
1	2330	360
1	2278	361
1	2183	362
1	2057	363
1	1918	364
1	1764	365
1	1622	366
1	1503	367
1	1426	368
1	1398	369
1	1420	370
1	1489	371
1	1597	372
1	1737	373
1	1890	374
1	2040	375
1	2168	376
1	2273	377
1	2339	378
1	2358	379
1	2336	400
1	2271	401
1	2173	402
1	2053	403
1	1912	404
1	1763	405
1	1625	406
1	1505	407
1	1421	408
1	1370	409
1	1380	410
1	1436	411
1	1530	412
1	1659	413
1	1809	414
1	1953	415
1	2088	416
1	2200	417
1	2288	418
1	2333	419
1	2327	400
1	2283	401
1	2200	402
1	2082	403
1	1947	404
1	1813	405
1	1673	406
1	1557	407
1	1476	408
1	1431	409
1	1437	410
1	1486	411
1	1574	412
1	1688	413
1	1827	414
1	1955	415
1	2078	416
1	2178	417
1	2258	418
1	2302	419
1	2314	420
1	2277	421
1	2192	422
1	2079	423
1	1947	424
1	1812	425
1	1683	426
1	1582	427
1	1511	428
1	1479	429
1	1487	430
1	1539	431
1	1629	432
1	1747	433
1	1881	434
1	2010	435
1	2132	436
1	2235	437
1	2314	438
1	2353	439
1	2352	440
1	2313	441
1	2236	442
1	2119	443
1	1987	444
1	1834	445
1	1690	446
1	1572	447
1	1481	448
1	1438	449
1	1450	450
1	1505	451
1	1605	452
1	1737	453
1	1884	454
1	2027	455
1	2165	456
1	2286	457
1	2369	458
1	2419	459
1	2417	460
1	2368	461
1	2288	462
1	2169	463
1	2030	464
1	1897	465
1	1764	466
1	1647	467
1	1560	468
1	1515	469
1	1518	470
1	1569	471
1	1660	472
1	1785	473
1	1929	474
1	2062	475
1	2183	476
1	2290	477
1	2359	478
1	2386	479
1	2419	500
1	2368	501
1	2289	502
1	2179	503
1	2052	504
1	1910	505
1	1773	506
1	1652	507
1	1563	508
1	1513	509
1	1515	510
1	1555	511
1	1633	512
1	1738	513
1	1869	514
1	2002	515
1	2131	516
1	2249	517
1	2328	518
1	2377	519
1	2387	480
1	2341	481
1	2263	482
1	2152	483
1	2025	484
1	1895	485
1	1775	486
1	1683	487
1	1620	488
1	1596	489
1	1607	490
1	1660	491
1	1754	492
1	1875	493
1	2004	494
1	2139	495
1	2260	496
1	2345	497
1	2404	498
1	2428	499
1	2372	520
1	2338	521
1	2263	522
1	2155	523
1	2024	524
1	1891	525
1	1751	526
1	1637	527
1	1555	528
1	1503	529
1	1493	530
1	1521	531
1	1581	532
1	1677	533
1	1791	534
1	1922	535
1	2026	536
1	2114	537
1	2174	538
1	2201	539
1	2192	540
1	2155	541
1	2086	542
1	2003	543
1	1899	544
1	1785	545
1	1674	546
1	1584	547
1	1521	548
1	1495	549
1	1508	550
1	1566	551
1	1659	552
1	1769	553
1	1891	554
1	2011	555
1	2112	556
1	2196	557
1	2260	558
1	2279	559
1	2275	580
1	2230	581
1	2148	582
1	2036	583
1	1904	584
1	1769	585
1	1634	586
1	1514	587
1	1424	588
1	1372	589
1	1374	590
1	1429	591
1	1521	592
1	1646	593
1	1788	594
1	1922	595
1	2051	596
1	2154	597
1	2222	598
1	2261	599
1	2253	600
1	2197	601
1	2109	602
1	1993	603
1	1856	604
1	1711	605
1	1572	606
1	1451	607
1	1364	608
1	1319	609
1	1323	610
1	1369	611
1	1456	612
1	1576	613
1	1717	614
1	1863	615
1	1994	616
1	2099	617
1	2170	618
1	2206	619
1	2262	560
1	2199	561
1	2109	562
1	1981	563
1	1845	564
1	1699	565
1	1561	566
1	1449	567
1	1363	568
1	1324	569
1	1346	570
1	1410	571
1	1503	572
1	1631	573
1	1769	574
1	1916	575
1	2047	576
1	2156	577
1	2240	578
1	2281	579
1	2197	620
1	2152	621
1	2071	622
1	1972	623
1	1868	624
1	1760	625
1	1673	626
1	1607	627
1	1593	628
1	1631	629
1	1735	630
1	1895	631
1	2037	632
1	2263	633
1	2472	634
1	2685	635
1	2879	636
1	3072	637
1	3130	638
1	3130	639
1	3130	640
1	3130	641
1	3130	642
1	3130	643
1	3130	644
1	3090	645
1	2961	646
1	2842	647
1	2741	648
1	2664	649
1	2606	650
1	2581	651
1	2585	652
1	2625	653
1	2679	654
1	2734	655
1	2782	656
1	2818	657
1	2829	658
1	2801	659
1	2118	680
1	2027	681
1	1910	682
1	1765	683
1	1610	684
1	1449	685
1	1296	686
1	1167	687
1	1076	688
1	1032	689
1	1053	690
1	1110	691
1	1212	692
1	1345	693
1	1494	694
1	1645	695
1	1787	696
1	1908	697
1	1999	698
1	2045	699
1	2042	700
1	2007	701
1	1937	702
1	1829	703
1	1687	704
1	1548	705
1	1401	706
1	1268	707
1	1176	708
1	1131	709
1	1138	710
1	1197	711
1	1293	712
1	1425	713
1	1579	714
1	1717	715
1	1856	716
1	1962	717
1	2042	718
1	2079	719
1	2742	660
1	2652	661
1	2540	662
1	2412	663
1	2255	664
1	2093	665
1	1948	666
1	1827	667
1	1742	668
1	1700	669
1	1697	670
1	1736	671
1	1801	672
1	1893	673
1	1981	674
1	2079	675
1	2155	676
1	2200	677
1	2209	678
1	2181	679
1	2078	740
1	2025	741
1	1933	742
1	1813	743
1	1667	744
1	1519	745
1	1374	746
1	1265	747
1	1188	748
1	1160	749
1	1181	750
1	1249	751
1	1346	752
1	1476	753
1	1613	754
1	1756	755
1	1894	756
1	2000	757
1	2074	758
1	2105	759
1	2087	720
1	2047	721
1	1966	722
1	1860	723
1	1736	724
1	1607	725
1	1476	726
1	1363	727
1	1278	728
1	1236	729
1	1233	730
1	1281	731
1	1368	732
1	1490	733
1	1625	734
1	1764	735
1	1898	736
1	1991	737
1	2066	738
1	2092	739
1	2081	760
1	2021	761
1	1922	762
1	1793	763
1	1647	764
1	1503	765
1	1364	766
1	1250	767
1	1173	768
1	1135	769
1	1147	770
1	1211	771
1	1315	772
1	1456	773
1	1616	774
1	1764	775
1	1901	776
1	2009	777
1	2081	778
1	2115	779
1	2152	800
1	2102	801
1	2015	802
1	1901	803
1	1764	804
1	1613	805
1	1476	806
1	1355	807
1	1267	808
1	1217	809
1	1225	810
1	1272	811
1	1361	812
1	1490	813
1	1634	814
1	1782	815
1	1923	816
1	2043	817
1	2132	818
1	2184	819
1	2120	780
1	2079	781
1	2000	782
1	1894	783
1	1759	784
1	1616	785
1	1481	786
1	1368	787
1	1291	788
1	1253	789
1	1265	790
1	1321	791
1	1424	792
1	1548	793
1	1691	794
1	1843	795
1	1974	796
1	2076	797
1	2143	798
1	2165	799
1	2181	820
1	2136	821
1	2052	822
1	1926	823
1	1779	824
1	1637	825
1	1503	826
1	1382	827
1	1299	828
1	1259	829
1	1266	830
1	1323	831
1	1391	832
1	1500	833
1	1628	834
1	1762	835
1	1885	836
1	1978	837
1	2042	838
1	2073	839
1	2066	840
1	2023	841
1	1943	842
1	1842	843
1	1709	844
1	1578	845
1	1453	846
1	1351	847
1	1287	848
1	1261	849
1	1276	850
1	1337	851
1	1440	852
1	1569	853
1	1716	854
1	1881	855
1	2029	856
1	2158	857
1	2258	858
1	2304	859
1	2305	860
1	2262	861
1	2170	862
1	2050	863
1	1908	864
1	1753	865
1	1609	866
1	1488	867
1	1398	868
1	1346	869
1	1351	870
1	1396	871
1	1469	872
1	1573	873
1	1691	874
1	1818	875
1	1936	876
1	2039	877
1	2118	878
1	2165	879
1	2170	880
1	2139	881
1	2073	882
1	1967	883
1	1841	884
1	1706	885
1	1573	886
1	1458	887
1	1373	888
1	1335	889
1	1340	890
1	1391	891
1	1476	892
1	1596	893
1	1733	894
1	1869	895
1	2000	896
1	2111	897
1	2189	898
1	2242	899
1	2258	900
1	2221	901
1	2147	902
1	2042	903
1	1914	904
1	1772	905
1	1643	906
1	1535	907
1	1463	908
1	1429	909
1	1436	910
1	1478	911
1	1546	912
1	1638	913
1	1751	914
1	1881	915
1	1994	916
1	2093	917
1	2170	918
1	2215	919
1	2218	920
1	2176	921
1	2091	922
1	1967	923
1	1818	924
1	1651	925
1	1494	926
1	1361	927
1	1271	928
1	1240	929
1	1261	930
1	1328	931
1	1399	932
1	1528	933
1	1667	934
1	1803	935
1	1944	936
1	2054	937
1	2133	938
1	2170	939
1	2161	940
1	2114	941
1	2030	942
1	1917	943
1	1773	944
1	1625	945
1	1485	946
1	1368	947
1	1284	948
1	1254	949
1	1267	950
1	1330	951
1	1429	952
1	1557	953
1	1710	954
1	1859	955
1	1994	956
1	2105	957
1	2174	958
1	2207	959
1	2204	960
1	2149	961
1	2056	962
1	1932	963
1	1779	964
1	1620	965
1	1465	966
1	1332	967
1	1241	968
1	1199	969
1	1202	970
1	1263	971
1	1363	972
1	1500	973
1	1649	974
1	1815	975
1	1957	976
1	2076	977
1	2157	978
1	2185	979
1	2169	980
1	2111	981
1	2018	982
1	1893	983
1	1738	984
1	1578	985
1	1428	986
1	1304	987
1	1217	988
1	1176	989
1	1186	990
1	1230	991
1	1319	992
1	1443	993
1	1580	994
1	1718	995
1	1854	996
1	1971	997
1	2058	998
1	2106	999
1	2105	1000
1	2076	1001
1	2016	1002
1	1924	1003
1	1808	1004
1	1680	1005
1	1547	1006
1	1430	1007
1	1337	1008
1	1291	1009
1	1291	1010
1	1333	1011
1	1422	1012
1	1529	1013
1	1660	1014
1	1785	1015
1	1903	1016
1	1999	1017
1	2064	1018
1	2094	1019
1	2088	1020
1	2039	1021
1	1956	1022
1	1843	1023
1	1704	1024
1	1561	1025
1	1424	1026
1	1305	1027
1	1228	1028
1	1202	1029
1	1225	1030
1	1292	1031
1	1384	1032
1	1510	1033
1	1638	1034
1	1770	1035
1	1887	1036
1	1963	1037
1	2026	1038
1	2048	1039
1	2021	1040
1	1957	1041
1	1859	1042
1	1729	1043
1	1592	1044
1	1453	1045
1	1325	1046
1	1237	1047
1	1186	1048
1	1175	1049
1	1211	1050
1	1283	1051
1	1393	1052
1	1530	1053
1	1675	1054
1	1828	1055
1	1969	1056
1	2084	1057
1	2166	1058
1	2201	1059
1	2181	1060
1	2122	1061
1	2022	1062
1	1890	1063
1	1730	1064
1	1580	1065
1	1433	1066
1	1306	1067
1	1219	1068
1	1175	1069
1	1181	1070
1	1231	1071
1	1319	1072
1	1448	1073
1	1587	1074
1	1721	1075
1	1854	1076
1	1957	1077
1	2031	1078
1	2071	1079
1	2076	1080
1	2030	1081
1	1949	1082
1	1832	1083
1	1686	1084
1	1538	1085
1	1398	1086
1	1283	1087
1	1206	1088
1	1176	1089
1	1184	1090
1	1241	1091
1	1332	1092
1	1453	1093
1	1584	1094
1	1723	1095
1	1848	1096
1	1948	1097
1	2012	1098
1	2041	1099
1	2029	1100
1	1986	1101
1	1912	1102
1	1809	1103
1	1683	1104
1	1545	1105
1	1416	1106
1	1298	1107
1	1215	1108
1	1175	1109
1	1186	1110
1	1233	1111
1	1306	1112
1	1411	1113
1	1528	1114
1	1647	1115
1	1763	1116
1	1867	1117
1	1944	1118
1	1980	1119
1	1971	1120
1	1927	1121
1	1852	1122
1	1743	1123
1	1623	1124
1	1504	1125
1	1391	1126
1	1293	1127
1	1232	1128
1	1209	1129
1	1226	1130
1	1296	1131
1	1368	1132
1	1494	1133
1	1638	1134
1	1782	1135
1	1913	1136
1	2021	1137
1	2097	1138
1	2131	1139
1	2122	1140
1	2075	1141
1	1983	1142
1	1862	1143
1	1719	1144
1	1572	1145
1	1432	1146
1	1312	1147
1	1233	1148
1	1196	1149
1	1206	1150
1	1266	1151
1	1366	1152
1	1503	1153
1	1651	1154
1	1816	1155
1	1953	1156
1	2066	1157
1	2149	1158
1	2197	1159
1	2209	1160
1	2174	1161
1	2100	1162
1	1980	1163
1	1830	1164
1	1652	1165
1	1489	1166
1	1344	1167
1	1240	1168
1	1184	1169
1	1184	1170
1	1232	1171
1	1328	1172
1	1463	1173
1	1620	1174
1	1774	1175
1	1921	1176
1	2032	1177
1	2119	1178
1	2167	1179
1	2160	1180
1	2118	1181
1	2034	1182
1	1919	1183
1	1780	1184
1	1643	1185
1	1505	1186
1	1384	1187
1	1302	1188
1	1266	1189
1	1275	1190
1	1327	1191
1	1417	1192
1	1531	1193
1	1665	1194
1	1800	1195
1	1934	1196
1	2052	1197
1	2131	1198
1	2170	1199
1	2165	1200
1	2115	1201
1	2026	1202
1	1909	1203
1	1764	1204
1	1616	1205
1	1471	1206
1	1343	1207
1	1242	1208
1	1189	1209
1	1188	1210
1	1233	1211
1	1319	1212
1	1446	1213
1	1587	1214
1	1739	1215
1	1878	1216
1	1989	1217
1	2067	1218
1	2106	1219
1	2105	1220
1	2063	1221
1	1980	1222
1	1859	1223
1	1708	1224
1	1549	1225
1	1402	1226
1	1275	1227
1	1186	1228
1	1136	1229
1	1142	1230
1	1198	1231
1	1266	1232
1	1397	1233
1	1525	1234
1	1660	1235
1	1782	1236
1	1888	1237
1	1955	1238
1	1988	1239
1	1989	1260
1	1953	1261
1	1883	1262
1	1770	1263
1	1636	1264
1	1503	1265
1	1373	1266
1	1272	1267
1	1202	1268
1	1164	1269
1	1166	1270
1	1215	1271
1	1305	1272
1	1431	1273
1	1560	1274
1	1694	1275
1	1814	1276
1	1903	1277
1	1961	1278
1	1980	1279
1	1985	1240
1	1948	1241
1	1872	1242
1	1764	1243
1	1634	1244
1	1494	1245
1	1354	1246
1	1229	1247
1	1134	1248
1	1084	1249
1	1084	1250
1	1125	1251
1	1209	1252
1	1327	1253
1	1467	1254
1	1607	1255
1	1738	1256
1	1855	1257
1	1938	1258
1	1983	1259
1	1962	1280
1	1909	1281
1	1823	1282
1	1697	1283
1	1547	1284
1	1390	1285
1	1247	1286
1	1136	1287
1	1065	1288
1	1040	1289
1	1071	1290
1	1143	1291
1	1242	1292
1	1366	1293
1	1503	1294
1	1644	1295
1	1770	1296
1	1877	1297
1	1944	1298
1	1973	1299
1	1959	1300
1	1909	1301
1	1825	1302
1	1703	1303
1	1566	1304
1	1422	1305
1	1267	1306
1	1135	1307
1	1035	1308
1	981	1309
1	980	1310
1	1029	1311
1	1119	1312
1	1247	1313
1	1398	1314
1	1546	1315
1	1697	1316
1	1841	1317
1	1955	1318
1	2042	1319
1	2105	1320
1	2131	1321
1	2124	1322
1	2096	1323
1	2052	1324
1	2000	1325
1	1961	1326
1	1944	1327
1	1953	1328
1	2000	1329
1	2079	1330
1	2213	1331
1	2380	1332
1	2560	1333
1	2745	1334
1	2926	1335
1	3105	1336
1	3130	1337
1	3130	1338
1	3130	1339
1	3130	1340
1	3130	1341
1	3130	1342
1	3071	1343
1	2874	1344
1	2657	1345
1	2448	1346
1	2238	1347
1	2070	1348
1	1955	1349
1	1895	1350
1	1884	1351
1	1920	1352
1	1998	1353
1	2099	1354
1	2209	1355
1	2316	1356
1	2405	1357
1	2461	1358
1	2485	1359
1	2459	1360
1	2397	1361
1	2291	1362
1	2138	1363
1	1964	1364
1	1788	1365
1	1607	1366
1	1449	1367
1	1319	1368
1	1229	1369
1	1188	1370
1	1197	1371
1	1250	1372
1	1337	1373
1	1446	1374
1	1551	1375
1	1649	1376
1	1727	1377
1	1778	1378
1	1791	1379
1	1773	1380
1	1712	1381
1	1618	1382
1	1494	1383
1	1346	1384
1	1197	1385
1	1063	1386
1	951	1387
1	876	1388
1	850	1389
1	865	1390
1	931	1391
1	1040	1392
1	1180	1393
1	1333	1394
1	1501	1395
1	1652	1396
1	1782	1397
1	1879	1398
1	1931	1399
1	1939	1400
1	1906	1401
1	1827	1402
1	1705	1403
1	1555	1404
1	1382	1405
1	1222	1406
1	1085	1407
1	984	1408
1	927	1409
1	927	1410
1	977	1411
1	1058	1412
1	1174	1413
1	1310	1414
1	1459	1415
1	1600	1416
1	1717	1417
1	1803	1418
1	1853	1419
1	1854	1420
1	1817	1421
1	1737	1422
1	1622	1423
1	1487	1424
1	1342	1425
1	1204	1426
1	1089	1427
1	1009	1428
1	964	1429
1	979	1430
1	1056	1431
1	1122	1432
1	1247	1433
1	1398	1434
1	1539	1435
1	1664	1436
1	1766	1437
1	1845	1438
1	1883	1439
1	1887	1440
1	1852	1441
1	1772	1442
1	1660	1443
1	1532	1444
1	1376	1445
1	1228	1446
1	1095	1447
1	1001	1448
1	947	1449
1	945	1450
1	1003	1451
1	1092	1452
1	1215	1453
1	1347	1454
1	1494	1455
1	1613	1456
1	1710	1457
1	1785	1458
1	1828	1459
1	1835	1460
1	1809	1461
1	1738	1462
1	1634	1463
1	1503	1464
1	1354	1465
1	1219	1466
1	1107	1467
1	1031	1468
1	1004	1469
1	1021	1470
1	1083	1471
1	1179	1472
1	1303	1473
1	1448	1474
1	1593	1475
1	1726	1476
1	1841	1477
1	1918	1478
1	1957	1479
1	1948	1480
1	1908	1481
1	1831	1482
1	1712	1483
1	1573	1484
1	1428	1485
1	1274	1486
1	1144	1487
1	1049	1488
1	1004	1489
1	1009	1490
1	1062	1491
1	1152	1492
1	1269	1493
1	1412	1494
1	1548	1495
1	1686	1496
1	1811	1497
1	1901	1498
1	1959	1499
1	1982	1500
1	1953	1501
1	1881	1502
1	1757	1503
1	1608	1504
1	1449	1505
1	1291	1506
1	1153	1507
1	1050	1508
1	995	1509
1	992	1510
1	1042	1511
1	1127	1512
1	1241	1513
1	1377	1514
1	1534	1515
1	1670	1516
1	1779	1517
1	1860	1518
1	1907	1519
1	1914	1520
1	1892	1521
1	1827	1522
1	1724	1523
1	1590	1524
1	1443	1525
1	1306	1526
1	1202	1527
1	1130	1528
1	1098	1529
1	1121	1530
1	1202	1531
1	1278	1532
1	1424	1533
1	1555	1534
1	1692	1535
1	1821	1536
1	1922	1537
1	1993	1538
1	2021	1539
1	2006	1540
1	1952	1541
1	1860	1542
1	1733	1543
1	1586	1544
1	1439	1545
1	1304	1546
1	1189	1547
1	1114	1548
1	1084	1549
1	1096	1550
1	1154	1551
1	1254	1552
1	1379	1553
1	1528	1554
1	1664	1555
1	1791	1556
1	1900	1557
1	1973	1558
1	2007	1559
1	2005	1560
1	1962	1561
1	1881	1562
1	1762	1563
1	1621	1564
1	1476	1565
1	1338	1566
1	1227	1567
1	1145	1568
1	1114	1569
1	1127	1570
1	1188	1571
1	1291	1572
1	1412	1573
1	1543	1574
1	1686	1575
1	1818	1576
1	1929	1577
1	2004	1578
1	2040	1579
1	2031	1580
1	1989	1581
1	1908	1582
1	1791	1583
1	1659	1584
1	1508	1585
1	1366	1586
1	1250	1587
1	1170	1588
1	1135	1589
1	1157	1590
1	1215	1591
1	1319	1592
1	1459	1593
1	1611	1594
1	1764	1595
1	1900	1596
1	2005	1597
1	2076	1598
1	2106	1599
1	2093	1600
1	2048	1601
1	1970	1602
1	1856	1603
1	1715	1604
1	1572	1605
1	1424	1606
1	1293	1607
1	1202	1608
1	1152	1609
1	1152	1610
1	1194	1611
1	1282	1612
1	1402	1613
1	1533	1614
1	1661	1615
1	1785	1616
1	1890	1617
1	1961	1618
1	1995	1619
1	1992	1620
1	1949	1621
1	1871	1622
1	1762	1623
1	1628	1624
1	1477	1625
1	1324	1626
1	1193	1627
1	1096	1628
1	1039	1629
1	1031	1630
1	1080	1631
1	1161	1632
1	1274	1633
1	1409	1634
1	1549	1635
1	1685	1636
1	1788	1637
1	1880	1638
1	1926	1639
1	1943	1640
1	1920	1641
1	1865	1642
1	1769	1643
1	1660	1644
1	1534	1645
1	1412	1646
1	1298	1647
1	1207	1648
1	1150	1649
1	1136	1650
1	1173	1651
1	1260	1652
1	1381	1653
1	1529	1654
1	1680	1655
1	1828	1656
1	1947	1657
1	2028	1658
1	2070	1659
1	1940	1700
1	1903	1701
1	1823	1702
1	1705	1703
1	1568	1704
1	1423	1705
1	1292	1706
1	1185	1707
1	1110	1708
1	1076	1709
1	1094	1710
1	1148	1711
1	1241	1712
1	1369	1713
1	1517	1714
1	1661	1715
1	1791	1716
1	1900	1717
1	1974	1718
1	2006	1719
1	1992	1680
1	1948	1681
1	1858	1682
1	1730	1683
1	1582	1684
1	1427	1685
1	1280	1686
1	1165	1687
1	1094	1688
1	1066	1689
1	1075	1690
1	1129	1691
1	1216	1692
1	1325	1693
1	1452	1694
1	1586	1695
1	1711	1696
1	1821	1697
1	1895	1698
1	1936	1699
1	2058	1660
1	2013	1661
1	1926	1662
1	1803	1663
1	1652	1664
1	1500	1665
1	1345	1666
1	1222	1667
1	1136	1668
1	1095	1669
1	1098	1670
1	1141	1671
1	1224	1672
1	1337	1673
1	1476	1674
1	1608	1675
1	1741	1676
1	1855	1677
1	1937	1678
1	1983	1679
1	1989	1720
1	1940	1721
1	1856	1722
1	1741	1723
1	1607	1724
1	1467	1725
1	1319	1726
1	1201	1727
1	1110	1728
1	1059	1729
1	1067	1730
1	1125	1731
1	1225	1732
1	1360	1733
1	1511	1734
1	1647	1735
1	1767	1736
1	1874	1737
1	1952	1738
1	2000	1739
1	2009	1740
1	1974	1741
1	1893	1742
1	1775	1743
1	1634	1744
1	1485	1745
1	1337	1746
1	1212	1747
1	1121	1748
1	1071	1749
1	1066	1750
1	1108	1751
1	1188	1752
1	1310	1753
1	1462	1754
1	1616	1755
1	1751	1756
1	1869	1757
1	1952	1758
1	1999	1759
1	2001	1760
1	1965	1761
1	1891	1762
1	1780	1763
1	1650	1764
1	1508	1765
1	1374	1766
1	1268	1767
1	1191	1768
1	1157	1769
1	1167	1770
1	1215	1771
1	1294	1772
1	1413	1773
1	1541	1774
1	1675	1775
1	1800	1776
1	1908	1777
1	1981	1778
1	2024	1779
1	2013	1780
1	1967	1781
1	1881	1782
1	1752	1783
1	1605	1784
1	1458	1785
1	1312	1786
1	1197	1787
1	1104	1788
1	1049	1789
1	1040	1790
1	1083	1791
1	1171	1792
1	1299	1793
1	1458	1794
1	1619	1795
1	1769	1796
1	1900	1797
1	1995	1798
1	2042	1799
1	2052	1800
1	2017	1801
1	1948	1802
1	1844	1803
1	1712	1804
1	1565	1805
1	1421	1806
1	1289	1807
1	1191	1808
1	1135	1809
1	1123	1810
1	1162	1811
1	1243	1812
1	1368	1813
1	1522	1814
1	1685	1815
1	1829	1816
1	1948	1817
1	2031	1818
1	2078	1819
1	2084	1820
1	2052	1821
1	1976	1822
1	1859	1823
1	1714	1824
1	1558	1825
1	1412	1826
1	1282	1827
1	1188	1828
1	1137	1829
1	1146	1830
1	1197	1831
1	1279	1832
1	1420	1833
1	1560	1834
1	1708	1835
1	1854	1836
1	1970	1837
1	2048	1838
1	2102	1839
1	2109	1840
1	2069	1841
1	1988	1842
1	1869	1843
1	1727	1844
1	1579	1845
1	1435	1846
1	1305	1847
1	1219	1848
1	1175	1849
1	1183	1850
1	1241	1851
1	1340	1852
1	1476	1853
1	1634	1854
1	1785	1855
1	1926	1856
1	2039	1857
1	2113	1858
1	2138	1859
1	2129	1860
1	2074	1861
1	1987	1862
1	1874	1863
1	1749	1864
1	1620	1865
1	1498	1866
1	1384	1867
1	1310	1868
1	1278	1869
1	1293	1870
1	1361	1871
1	1469	1872
1	1600	1873
1	1746	1874
1	1899	1875
1	2030	1876
1	2132	1877
1	2205	1878
1	2236	1879
1	2222	1880
1	2169	1881
1	2077	1882
1	1951	1883
1	1807	1884
1	1647	1885
1	1502	1886
1	1372	1887
1	1279	1888
1	1231	1889
1	1236	1890
1	1279	1891
1	1358	1892
1	1472	1893
1	1595	1894
1	1725	1895
1	1848	1896
1	1953	1897
1	2039	1898
1	2096	1899
1	2109	1900
1	2097	1901
1	2047	1902
1	1959	1903
1	1844	1904
1	1721	1905
1	1598	1906
1	1492	1907
1	1413	1908
1	1361	1909
1	1356	1910
1	1395	1911
1	1463	1912
1	1564	1913
1	1687	1914
1	1811	1915
1	1924	1916
1	2016	1917
1	2077	1918
1	2099	1919
1	2090	1920
1	2037	1921
1	1949	1922
1	1827	1923
1	1680	1924
1	1529	1925
1	1377	1926
1	1246	1927
1	1149	1928
1	1098	1929
1	1089	1930
1	1136	1931
1	1229	1932
1	1360	1933
1	1515	1934
1	1674	1935
1	1831	1936
1	1948	1937
1	2048	1938
1	2104	1939
1	2112	1940
1	2074	1941
1	2000	1942
1	1894	1943
1	1761	1944
1	1616	1945
1	1478	1946
1	1357	1947
1	1268	1948
1	1219	1949
1	1215	1950
1	1255	1951
1	1345	1952
1	1464	1953
1	1605	1954
1	1751	1955
1	1897	1956
1	2021	1957
1	2105	1958
1	2147	1959
1	2133	1960
1	2083	1961
1	1998	1962
1	1877	1963
1	1734	1964
1	1593	1965
1	1451	1966
1	1327	1967
1	1236	1968
1	1188	1969
1	1189	1970
1	1241	1971
1	1331	1972
1	1458	1973
1	1599	1974
1	1736	1975
1	1869	1976
1	1976	1977
1	2061	1978
1	2107	1979
1	2124	1980
1	2090	1981
1	2014	1982
1	1899	1983
1	1756	1984
1	1605	1985
1	1450	1986
1	1309	1987
1	1207	1988
1	1140	1989
1	1125	1990
1	1157	1991
1	1227	1992
1	1328	1993
1	1459	1994
1	1599	1995
1	1733	1996
1	1853	1997
1	1939	1998
1	1985	1999
1	1993	2000
1	1960	2001
1	1885	2002
1	1770	2003
1	1644	2004
1	1502	2005
1	1364	2006
1	1253	2007
1	1166	2008
1	1122	2009
1	1132	2010
1	1184	2011
1	1287	2012
1	1445	2013
1	1629	2014
1	1827	2015
1	2018	2016
1	2195	2017
1	2353	2018
1	2476	2019
1	2535	2020
1	2570	2021
1	2573	2022
1	2548	2023
1	2509	2024
1	2470	2025
1	2423	2026
1	2404	2027
1	2414	2028
1	2462	2029
1	2536	2030
1	2646	2031
1	2773	2032
1	2930	2033
1	3101	2034
1	3130	2035
1	3130	2036
1	3130	2037
1	3130	2038
1	3130	2039
1	3130	2040
1	3130	2041
1	3106	2042
1	2919	2043
1	2727	2044
1	2535	2045
1	2347	2046
1	2176	2047
1	2048	2048
1	1958	2049
1	1908	2050
1	1908	2051
1	1946	2052
1	2017	2053
1	2120	2054
1	2245	2055
1	2355	2056
1	2447	2057
1	2503	2058
1	2509	2059
1	2471	2060
1	2385	2061
1	2264	2062
1	2105	2063
1	1927	2064
1	1728	2065
1	1539	2066
1	1359	2067
1	1211	2068
1	1109	2069
1	1067	2070
1	1081	2071
1	1140	2072
1	1240	2073
1	1359	2074
1	1499	2075
1	1632	2076
1	1747	2077
1	1841	2078
1	1895	2079
1	1907	2080
1	1887	2081
1	1832	2082
1	1736	2083
1	1611	2084
1	1486	2085
1	1346	2086
1	1231	2087
1	1154	2088
1	1114	2089
1	1121	2090
1	1174	2091
1	1265	2092
1	1394	2093
1	1536	2094
1	1685	2095
1	1819	2096
1	1929	2097
1	2011	2098
1	2053	2099
1	2063	2100
1	2022	2101
1	1947	2102
1	1836	2103
1	1699	2104
1	1555	2105
1	1417	2106
1	1295	2107
1	1214	2108
1	1168	2109
1	1166	2110
1	1215	2111
1	1309	2112
1	1432	2113
1	1571	2114
1	1716	2115
1	1852	2116
1	1960	2117
1	2028	2118
1	2057	2119
1	2043	2120
1	1989	2121
1	1903	2122
1	1790	2123
1	1657	2124
1	1503	2125
1	1350	2126
1	1228	2127
1	1134	2128
1	1081	2129
1	1080	2130
1	1127	2131
1	1212	2132
1	1346	2133
1	1488	2134
1	1641	2135
1	1795	2136
1	1922	2137
1	2021	2138
1	2076	2139
1	2084	2140
1	2052	2141
1	1985	2142
1	1872	2143
1	1737	2144
1	1594	2145
1	1463	2146
1	1350	2147
1	1284	2148
1	1255	2149
1	1265	2150
1	1317	2151
1	1403	2152
1	1520	2153
1	1652	2154
1	1778	2155
1	1903	2156
1	2000	2157
1	2074	2158
1	2116	2159
1	2124	2160
1	2081	2161
1	2012	2162
1	1907	2163
1	1772	2164
1	1634	2165
1	1501	2166
1	1383	2167
1	1296	2168
1	1251	2169
1	1243	2170
1	1282	2171
1	1360	2172
1	1478	2173
1	1619	2174
1	1767	2175
1	1906	2176
1	2014	2177
1	2092	2178
1	2134	2179
1	2138	2180
1	2103	2181
1	2026	2182
1	1922	2183
1	1787	2184
1	1634	2185
1	1490	2186
1	1359	2187
1	1267	2188
1	1223	2189
1	1228	2190
1	1278	2191
1	1359	2192
1	1477	2193
1	1616	2194
1	1760	2195
1	1895	2196
1	2002	2197
1	2078	2198
1	2116	2199
1	2107	2200
1	2071	2201
1	2001	2202
1	1898	2203
1	1770	2204
1	1652	2205
1	1533	2206
1	1437	2207
1	1364	2208
1	1325	2209
1	1328	2210
1	1372	2211
1	1458	2212
1	1571	2213
1	1703	2214
1	1836	2215
1	1961	2216
1	2066	2217
1	2142	2218
1	2185	2219
1	2201	2220
1	2170	2221
1	2104	2222
1	2003	2223
1	1886	2224
1	1750	2225
1	1623	2226
1	1515	2227
1	1433	2228
1	1384	2229
1	1383	2230
1	1439	2231
1	1520	2232
1	1631	2233
1	1760	2234
1	1908	2235
1	2052	2236
1	2148	2237
1	2230	2238
1	2266	2239
1	2264	2240
1	2222	2241
1	2146	2242
1	2034	2243
1	1895	2244
1	1728	2245
1	1575	2246
1	1440	2247
1	1337	2248
1	1282	2249
1	1279	2250
1	1319	2251
1	1412	2252
1	1529	2253
1	1674	2254
1	1827	2255
1	1971	2256
1	2104	2257
1	2205	2258
1	2271	2259
1	2297	2280
1	2260	2281
1	2179	2282
1	2073	2283
1	1948	2284
1	1816	2285
1	1682	2286
1	1566	2287
1	1485	2288
1	1437	2289
1	1436	2290
1	1472	2291
1	1538	2292
1	1637	2293
1	1756	2294
1	1890	2295
1	2003	2296
1	2101	2297
1	2174	2298
1	2219	2299
1	2274	2260
1	2236	2261
1	2159	2262
1	2052	2263
1	1914	2264
1	1768	2265
1	1624	2266
1	1497	2267
1	1407	2268
1	1348	2269
1	1346	2270
1	1394	2271
1	1478	2272
1	1605	2273
1	1751	2274
1	1896	2275
1	2034	2276
1	2152	2277
1	2242	2278
1	2288	2279
1	2233	2300
1	2201	2301
1	2140	2302
1	2050	2303
1	1935	2304
1	1803	2305
1	1684	2306
1	1574	2307
1	1485	2308
1	1433	2309
1	1437	2310
1	1476	2311
1	1557	2312
1	1670	2313
1	1796	2314
1	1924	2315
1	2048	2316
1	2149	2317
1	2235	2318
1	2279	2319
1	2276	2320
1	2236	2321
1	2156	2322
1	2045	2323
1	1919	2324
1	1779	2325
1	1638	2326
1	1517	2327
1	1424	2328
1	1372	2329
1	1373	2330
1	1426	2331
1	1502	2332
1	1616	2333
1	1747	2334
1	1886	2335
1	2006	2336
1	2102	2337
1	2162	2338
1	2189	2339
1	2183	2340
1	2133	2341
1	2054	2342
1	1948	2343
1	1811	2344
1	1658	2345
1	1511	2346
1	1393	2347
1	1299	2348
1	1254	2349
1	1253	2350
1	1299	2351
1	1380	2352
1	1501	2353
1	1646	2354
1	1809	2355
1	1948	2356
1	2067	2357
1	2155	2358
1	2201	2359
1	2210	2360
1	2170	2361
1	2093	2362
1	1976	2363
1	1845	2364
1	1694	2365
1	1547	2366
1	1423	2367
1	1319	2368
1	1260	2369
1	1253	2370
1	1289	2371
1	1361	2372
1	1478	2373
1	1610	2374
1	1757	2375
1	1901	2376
1	2023	2377
1	2114	2378
1	2172	2379
1	2183	2380
1	2165	2381
1	2111	2382
1	2024	2383
1	1909	2384
1	1782	2385
1	1650	2386
1	1529	2387
1	1438	2388
1	1377	2389
1	1372	2390
1	1409	2391
1	1478	2392
1	1581	2393
1	1703	2394
1	1831	2395
1	1948	2396
1	2043	2397
1	2109	2398
1	2140	2399
1	2143	2400
1	2102	2401
1	2025	2402
1	1914	2403
1	1782	2404
1	1639	2405
1	1503	2406
1	1382	2407
1	1296	2408
1	1256	2409
1	1259	2410
1	1310	2411
1	1403	2412
1	1528	2413
1	1665	2414
1	1817	2415
1	1945	2416
1	2048	2417
1	2119	2418
1	2157	2419
1	2156	2420
1	2114	2421
1	2039	2422
1	1932	2423
1	1809	2424
1	1672	2425
1	1551	2426
1	1443	2427
1	1359	2428
1	1319	2429
1	1322	2430
1	1376	2431
1	1458	2432
1	1587	2433
1	1714	2434
1	1849	2435
1	1972	2436
1	2069	2437
1	2136	2438
1	2165	2439
1	2153	2440
1	2106	2441
1	2028	2442
1	1919	2443
1	1775	2444
1	1622	2445
1	1479	2446
1	1356	2447
1	1280	2448
1	1242	2449
1	1245	2450
1	1289	2451
1	1372	2452
1	1491	2453
1	1626	2454
1	1753	2455
1	1873	2456
1	1970	2457
1	2043	2458
1	2089	2459
1	2106	2460
1	2079	2461
1	2010	2462
1	1912	2463
1	1791	2464
1	1661	2465
1	1529	2466
1	1407	2467
1	1310	2468
1	1261	2469
1	1256	2470
1	1304	2471
1	1395	2472
1	1507	2473
1	1645	2474
1	1795	2475
1	1943	2476
1	2061	2477
1	2146	2478
1	2189	2479
1	2197	2480
1	2161	2481
1	2089	2482
1	1978	2483
1	1842	2484
1	1681	2485
1	1535	2486
1	1409	2487
1	1310	2488
1	1257	2489
1	1250	2490
1	1289	2491
1	1367	2492
1	1476	2493
1	1607	2494
1	1742	2495
1	1881	2496
1	1996	2497
1	2079	2498
1	2128	2499
1	2122	2500
1	2079	2501
1	1998	2502
1	1889	2503
1	1757	2504
1	1626	2505
1	1494	2506
1	1373	2507
1	1292	2508
1	1247	2509
1	1251	2510
1	1296	2511
1	1376	2512
1	1496	2513
1	1634	2514
1	1769	2515
1	1909	2516
1	2031	2517
1	2127	2518
1	2183	2519
1	2210	2520
1	2188	2521
1	2129	2522
1	2032	2523
1	1907	2524
1	1759	2525
1	1610	2526
1	1481	2527
1	1376	2528
1	1318	2529
1	1303	2530
1	1347	2531
1	1438	2532
1	1555	2533
1	1693	2534
1	1843	2535
1	1981	2536
1	2081	2537
1	2162	2538
1	2197	2539
1	2183	2540
1	2141	2541
1	2068	2542
1	1956	2543
1	1821	2544
1	1670	2545
1	1529	2546
1	1405	2547
1	1311	2548
1	1260	2549
1	1263	2550
1	1305	2551
1	1400	2552
1	1517	2553
1	1660	2554
1	1818	2555
1	1973	2556
1	2107	2557
1	2218	2558
1	2292	2559
1	2236	2580
1	2179	2581
1	2093	2582
1	1976	2583
1	1848	2584
1	1712	2585
1	1584	2586
1	1474	2587
1	1384	2588
1	1328	2589
1	1319	2590
1	1358	2591
1	1443	2592
1	1566	2593
1	1710	2594
1	1869	2595
1	2008	2596
1	2122	2597
1	2205	2598
1	2252	2599
1	2312	2560
1	2288	2561
1	2219	2562
1	2112	2563
1	1980	2564
1	1848	2565
1	1710	2566
1	1592	2567
1	1500	2568
1	1446	2569
1	1437	2570
1	1469	2571
1	1537	2572
1	1644	2573
1	1777	2574
1	1907	2575
1	2030	2576
1	2133	2577
1	2204	2578
1	2238	2579
1	2258	2600
1	2215	2601
1	2132	2602
1	2018	2603
1	1877	2604
1	1715	2605
1	1566	2606
1	1436	2607
1	1331	2608
1	1274	2609
1	1267	2610
1	1299	2611
1	1369	2612
1	1474	2613
1	1597	2614
1	1733	2615
1	1865	2616
1	1975	2617
1	2063	2618
1	2118	2619
1	2131	2620
1	2108	2621
1	2052	2622
1	1954	2623
1	1826	2624
1	1685	2625
1	1542	2626
1	1420	2627
1	1319	2628
1	1260	2629
1	1247	2630
1	1290	2631
1	1359	2632
1	1472	2633
1	1606	2634
1	1746	2635
1	1875	2636
1	1979	2637
1	2052	2638
1	2092	2639
1	2093	2640
1	2061	2641
1	1998	2642
1	1909	2643
1	1790	2644
1	1654	2645
1	1517	2646
1	1398	2647
1	1303	2648
1	1250	2649
1	1239	2650
1	1273	2651
1	1346	2652
1	1447	2653
1	1564	2654
1	1701	2655
1	1838	2656
1	1948	2657
1	2026	2658
1	2070	2659
1	2076	2660
1	2039	2661
1	1968	2662
1	1864	2663
1	1737	2664
1	1595	2665
1	1463	2666
1	1340	2667
1	1241	2668
1	1186	2669
1	1184	2670
1	1227	2671
1	1310	2672
1	1434	2673
1	1571	2674
1	1714	2675
1	1854	2676
1	1966	2677
1	2052	2678
1	2101	2679
1	2097	2680
1	2061	2681
1	1988	2682
1	1877	2683
1	1736	2684
1	1592	2685
1	1449	2686
1	1317	2687
1	1226	2688
1	1169	2689
1	1157	2690
1	1188	2691
1	1259	2692
1	1362	2693
1	1486	2694
1	1607	2695
1	1724	2696
1	1826	2697
1	1891	2698
1	1921	2699
1	1921	2700
1	1881	2701
1	1802	2702
1	1699	2703
1	1581	2704
1	1462	2705
1	1350	2706
1	1272	2707
1	1230	2708
1	1238	2709
1	1288	2710
1	1399	2711
1	1551	2712
1	1735	2713
1	1942	2714
1	2152	2715
1	2345	2716
1	2518	2717
1	2662	2718
1	2781	2719
1	2864	2720
1	2915	2721
1	2931	2722
1	2907	2723
1	2853	2724
1	2779	2725
1	2706	2726
1	2641	2727
1	2589	2728
1	2558	2729
1	2557	2730
1	2583	2731
1	2634	2732
1	2714	2733
1	2791	2734
1	2860	2735
1	2919	2736
1	2956	2737
1	2957	2738
1	2925	2739
1	2854	2740
1	2745	2741
1	2601	2742
1	2436	2743
1	2236	2744
1	2030	2745
1	1854	2746
1	1691	2747
1	1586	2748
1	1520	2749
1	1503	2750
1	1543	2751
1	1620	2752
1	1724	2753
1	1854	2754
1	1969	2755
1	2075	2756
1	2146	2757
1	2175	2758
1	2157	2759
1	2105	2760
1	2003	2761
1	1869	2762
1	1697	2763
1	1513	2764
1	1332	2765
1	1178	2766
1	1052	2767
1	954	2768
1	903	2769
1	900	2770
1	952	2771
1	1042	2772
1	1163	2773
1	1305	2774
1	1450	2775
1	1582	2776
1	1698	2777
1	1780	2778
1	1831	2779
1	1837	2780
1	1801	2781
1	1734	2782
1	1634	2783
1	1520	2784
1	1398	2785
1	1277	2786
1	1175	2787
1	1099	2788
1	1062	2789
1	1069	2790
1	1115	2791
1	1203	2792
1	1333	2793
1	1490	2794
1	1647	2795
1	1795	2796
1	1919	2797
1	2001	2798
1	2039	2799
1	2021	2800
1	1963	2801
1	1870	2802
1	1747	2803
1	1608	2804
1	1474	2805
1	1327	2806
1	1202	2807
1	1112	2808
1	1068	2809
1	1071	2810
1	1114	2811
1	1190	2812
1	1304	2813
1	1445	2814
1	1581	2815
1	1712	2816
1	1830	2817
1	1914	2818
1	1958	2819
1	2060	2840
1	2048	2841
1	1989	2842
1	1894	2843
1	1760	2844
1	1607	2845
1	1461	2846
1	1332	2847
1	1233	2848
1	1174	2849
1	1157	2850
1	1179	2851
1	1251	2852
1	1358	2853
1	1496	2854
1	1636	2855
1	1767	2856
1	1882	2857
1	1960	2858
1	1999	2859
1	1963	2820
1	1925	2821
1	1855	2822
1	1752	2823
1	1629	2824
1	1492	2825
1	1359	2826
1	1246	2827
1	1161	2828
1	1114	2829
1	1110	2830
1	1157	2831
1	1236	2832
1	1345	2833
1	1476	2834
1	1623	2835
1	1760	2836
1	1879	2837
1	1971	2838
1	2032	2839
1	1988	2860
1	1945	2861
1	1868	2862
1	1751	2863
1	1613	2864
1	1476	2865
1	1337	2866
1	1222	2867
1	1136	2868
1	1086	2869
1	1093	2870
1	1151	2871
1	1251	2872
1	1384	2873
1	1549	2874
1	1711	2875
1	1869	2876
1	1996	2877
1	2083	2878
1	2129	2879
1	2135	2880
1	2102	2881
1	2026	2882
1	1922	2883
1	1787	2884
1	1643	2885
1	1498	2886
1	1359	2887
1	1255	2888
1	1188	2889
1	1164	2890
1	1189	2891
1	1263	2892
1	1373	2893
1	1517	2894
1	1670	2895
1	1817	2896
1	1940	2897
1	2039	2898
1	2104	2899
1	2122	2900
1	2105	2901
1	2043	2902
1	1950	2903
1	1838	2904
1	1697	2905
1	1559	2906
1	1438	2907
1	1340	2908
1	1287	2909
1	1288	2910
1	1319	2911
1	1390	2912
1	1485	2913
1	1599	2914
1	1718	2915
1	1839	2916
1	1939	2917
1	2016	2918
1	2065	2919
1	2070	2920
1	2043	2921
1	1975	2922
1	1869	2923
1	1731	2924
1	1598	2925
1	1466	2926
1	1346	2927
1	1260	2928
1	1212	2929
1	1207	2930
1	1249	2931
1	1321	2932
1	1440	2933
1	1580	2934
1	1724	2935
1	1859	2936
1	1974	2937
1	2057	2938
1	2106	2939
1	2114	2940
1	2079	2941
1	1999	2942
1	1902	2943
1	1778	2944
1	1639	2945
1	1508	2946
1	1398	2947
1	1317	2948
1	1268	2949
1	1259	2950
1	1295	2951
1	1368	2952
1	1472	2953
1	1595	2954
1	1733	2955
1	1865	2956
1	1976	2957
1	2064	2958
1	2119	2959
1	2131	2960
1	2105	2961
1	2039	2962
1	1940	2963
1	1818	2964
1	1678	2965
1	1550	2966
1	1437	2967
1	1346	2968
1	1294	2969
1	1296	2970
1	1340	2971
1	1424	2972
1	1541	2973
1	1682	2974
1	1831	2975
1	1965	2976
1	2079	2977
1	2165	2978
1	2214	2979
1	2213	2980
1	2175	2981
1	2100	2982
1	1989	2983
1	1858	2984
1	1720	2985
1	1585	2986
1	1476	2987
1	1393	2988
1	1346	2989
1	1343	2990
1	1379	2991
1	1452	2992
1	1555	2993
1	1683	2994
1	1819	2995
1	1953	2996
1	2076	2997
1	2161	2998
1	2207	2999
1	2214	3000
1	2170	3001
1	2079	3002
1	1955	3003
1	1801	3004
1	1634	3005
1	1481	3006
1	1345	3007
1	1247	3008
1	1189	3009
1	1180	3010
1	1220	3011
1	1299	3012
1	1421	3013
1	1557	3014
1	1713	3015
1	1857	3016
1	1975	3017
1	2058	3018
1	2101	3019
1	2104	3020
1	2073	3021
1	2007	3022
1	1908	3023
1	1778	3024
1	1629	3025
1	1485	3026
1	1348	3027
1	1245	3028
1	1184	3029
1	1175	3030
1	1209	3031
1	1281	3032
1	1419	3033
1	1517	3034
1	1659	3035
1	1796	3036
1	1914	3037
1	1995	3038
1	2035	3039
1	2035	3040
1	1998	3041
1	1920	3042
1	1802	3043
1	1661	3044
1	1508	3045
1	1363	3046
1	1229	3047
1	1134	3048
1	1076	3049
1	1068	3050
1	1110	3051
1	1194	3052
1	1319	3053
1	1471	3054
1	1620	3055
1	1764	3056
1	1895	3057
1	1999	3058
1	2066	3059
1	2102	3060
1	2084	3061
1	2026	3062
1	1930	3063
1	1800	3064
1	1659	3065
1	1516	3066
1	1383	3067
1	1280	3068
1	1215	3069
1	1188	3070
1	1213	3071
1	1278	3072
1	1381	3073
1	1515	3074
1	1661	3075
1	1802	3076
1	1927	3077
1	2022	3078
1	2076	3079
1	2040	3100
1	1996	3101
1	1914	3102
1	1809	3103
1	1674	3104
1	1535	3105
1	1393	3106
1	1263	3107
1	1164	3108
1	1111	3109
1	1109	3110
1	1148	3111
1	1220	3112
1	1330	3113
1	1467	3114
1	1607	3115
1	1744	3116
1	1868	3117
1	1962	3118
1	2022	3119
1	2082	3080
1	2047	3081
1	1967	3082
1	1852	3083
1	1708	3084
1	1555	3085
1	1412	3086
1	1291	3087
1	1202	3088
1	1151	3089
1	1147	3090
1	1185	3091
1	1264	3092
1	1374	3093
1	1513	3094
1	1657	3095
1	1791	3096
1	1913	3097
1	2000	3098
1	2048	3099
1	2042	3120
1	2014	3121
1	1947	3122
1	1838	3123
1	1695	3124
1	1546	3125
1	1398	3126
1	1266	3127
1	1168	3128
1	1116	3129
1	1111	3130
1	1162	3131
1	1246	3132
1	1368	3133
1	1512	3134
1	1661	3135
1	1803	3136
1	1924	3137
1	2016	3138
1	2066	3139
1	2074	3140
1	2037	3141
1	1961	3142
1	1848	3143
1	1700	3144
1	1539	3145
1	1381	3146
1	1250	3147
1	1151	3148
1	1103	3149
1	1106	3150
1	1153	3151
1	1241	3152
1	1355	3153
1	1493	3154
1	1634	3155
1	1769	3156
1	1887	3157
1	1971	3158
1	2015	3159
1	2017	3160
1	1985	3161
1	1919	3162
1	1818	3163
1	1687	3164
1	1555	3165
1	1424	3166
1	1305	3167
1	1217	3168
1	1173	3169
1	1173	3170
1	1215	3171
1	1293	3172
1	1407	3173
1	1540	3174
1	1668	3175
1	1793	3176
1	1906	3177
1	1989	3178
1	2034	3179
1	2040	3180
1	2001	3181
1	1924	3182
1	1817	3183
1	1674	3184
1	1521	3185
1	1363	3186
1	1229	3187
1	1130	3188
1	1084	3189
1	1083	3190
1	1133	3191
1	1224	3192
1	1346	3193
1	1495	3194
1	1647	3195
1	1782	3196
1	1895	3197
1	1976	3198
1	2024	3199
1	2032	3200
1	2007	3201
1	1942	3202
1	1838	3203
1	1700	3204
1	1553	3205
1	1413	3206
1	1292	3207
1	1202	3208
1	1157	3209
1	1160	3210
1	1199	3211
1	1279	3212
1	1398	3213
1	1535	3214
1	1673	3215
1	1803	3216
1	1922	3217
1	2004	3218
1	2052	3219
1	2061	3220
1	2035	3221
1	1976	3222
1	1885	3223
1	1751	3224
1	1607	3225
1	1454	3226
1	1309	3227
1	1202	3228
1	1134	3229
1	1116	3230
1	1157	3231
1	1235	3232
1	1350	3233
1	1492	3234
1	1640	3235
1	1778	3236
1	1909	3237
1	2005	3238
1	2063	3239
1	2078	3260
1	2052	3261
1	1985	3262
1	1882	3263
1	1760	3264
1	1620	3265
1	1484	3266
1	1361	3267
1	1278	3268
1	1232	3269
1	1228	3270
1	1271	3271
1	1358	3272
1	1487	3273
1	1636	3274
1	1798	3275
1	1944	3276
1	2061	3277
1	2146	3278
1	2184	3279
1	2178	3260
1	2130	3261
1	2043	3262
1	1926	3263
1	1780	3264
1	1619	3265
1	1467	3266
1	1323	3267
1	1215	3268
1	1150	3269
1	1135	3270
1	1165	3271
1	1238	3272
1	1348	3273
1	1489	3274
1	1635	3275
1	1775	3276
1	1896	3277
1	1988	3278
1	2043	3279
1	2048	3280
1	2018	3281
1	1956	3282
1	1857	3283
1	1729	3284
1	1594	3285
1	1450	3286
1	1319	3287
1	1215	3288
1	1148	3289
1	1134	3290
1	1165	3291
1	1241	3292
1	1351	3293
1	1495	3294
1	1634	3295
1	1764	3296
1	1870	3297
1	1947	3298
1	1985	3299
1	1989	3300
1	1946	3301
1	1862	3302
1	1747	3303
1	1613	3304
1	1476	3305
1	1334	3306
1	1215	3307
1	1130	3308
1	1080	3309
1	1070	3310
1	1110	3311
1	1188	3312
1	1299	3313
1	1439	3314
1	1586	3315
1	1719	3316
1	1834	3317
1	1917	3318
1	1966	3319
1	1970	3320
1	1934	3321
1	1862	3322
1	1754	3323
1	1621	3324
1	1469	3325
1	1320	3326
1	1199	3327
1	1106	3328
1	1052	3329
1	1045	3330
1	1081	3331
1	1149	3332
1	1249	3333
1	1384	3334
1	1510	3335
1	1639	3336
1	1756	3337
1	1856	3338
1	1911	3339
1	1930	3340
1	1904	3341
1	1837	3342
1	1733	3343
1	1608	3344
1	1476	3345
1	1345	3346
1	1232	3347
1	1147	3348
1	1106	3349
1	1103	3350
1	1143	3351
1	1215	3352
1	1319	3353
1	1447	3354
1	1571	3355
1	1693	3356
1	1800	3357
1	1881	3358
1	1932	3359
1	1947	3360
1	1910	3361
1	1836	3362
1	1724	3363
1	1590	3364
1	1442	3365
1	1290	3366
1	1156	3367
1	1045	3368
1	979	3369
1	963	3370
1	1011	3371
1	1102	3372
1	1220	3373
1	1355	3374
1	1499	3375
1	1622	3376
1	1728	3377
1	1816	3378
1	1868	3379
1	1886	3380
1	1859	3381
1	1791	3382
1	1688	3383
1	1562	3384
1	1419	3385
1	1273	3386
1	1150	3387
1	1055	3388
1	999	3389
1	1001	3390
1	1053	3391
1	1152	3392
1	1297	3393
1	1484	3394
1	1684	3395
1	1890	3396
1	2075	3397
1	2237	3398
1	2364	3399
1	2445	3400
1	2496	3401
1	2506	3402
1	2488	3403
1	2436	3404
1	2375	3405
1	2306	3406
1	2256	3407
1	2235	3408
1	2250	3409
1	2309	3410
1	2400	3411
1	2515	3412
1	2640	3413
1	2768	3414
1	2889	3415
1	2990	3416
1	3063	3417
1	3082	3418
1	3059	3419
1	2995	3420
1	2899	3421
1	2770	3422
1	2603	3423
1	2415	3424
1	2188	3425
1	1975	3426
1	1779	3427
1	1620	3428
1	1503	3429
1	1440	3430
1	1429	3431
1	1466	3432
1	1552	3433
1	1659	3434
1	1782	3435
1	1903	3436
1	1987	3437
1	2057	3438
1	2071	3439
1	1695	3460
1	1664	3461
1	1599	3462
1	1502	3463
1	1372	3464
1	1241	3465
1	1109	3466
1	995	3467
1	906	3468
1	860	3469
1	854	3470
1	891	3471
1	972	3472
1	1089	3473
1	1240	3474
1	1397	3475
1	1547	3476
1	1685	3477
1	1791	3478
1	1862	3479
1	1895	3480
1	1872	3481
1	1812	3482
1	1711	3483
1	1585	3484
1	1448	3485
1	1302	3486
1	1176	3487
1	1081	3488
1	1018	3489
1	995	3490
1	1018	3491
1	1076	3492
1	1171	3493
1	1293	3494
1	1428	3495
1	1555	3496
1	1671	3497
1	1764	3498
1	1832	3499
1	2048	3440
1	1974	3441
1	1859	3442
1	1712	3443
1	1538	3444
1	1346	3445
1	1170	3446
1	1019	3447
1	908	3448
1	843	3449
1	821	3450
1	846	3451
1	909	3452
1	1014	3453
1	1148	3454
1	1285	3455
1	1425	3456
1	1544	3457
1	1635	3458
1	1688	3459
1	1855	3500
1	1841	3501
1	1787	3502
1	1704	3503
1	1600	3504
1	1472	3505
1	1340	3506
1	1219	3507
1	1121	3508
1	1058	3509
1	1042	3510
1	1067	3511
1	1129	3512
1	1228	3513
1	1348	3514
1	1485	3515
1	1618	3516
1	1731	3517
1	1820	3518
1	1875	3519
1	1884	3520
1	1854	3521
1	1785	3522
1	1687	3523
1	1562	3524
1	1430	3525
1	1287	3526
1	1165	3527
1	1072	3528
1	1020	3529
1	1017	3530
1	1059	3531
1	1142	3532
1	1256	3533
1	1396	3534
1	1538	3535
1	1671	3536
1	1780	3537
1	1867	3538
1	1913	3539
1	1917	3540
1	1878	3541
1	1796	3542
1	1687	3543
1	1553	3544
1	1373	3545
1	1247	3546
1	1114	3547
1	1017	3548
1	960	3549
1	957	3550
1	1007	3551
1	1094	3552
1	1215	3553
1	1354	3554
1	1510	3555
1	1643	3556
1	1765	3557
1	1870	3558
1	1946	3559
1	1970	3580
1	1948	3581
1	1885	3582
1	1786	3583
1	1660	3584
1	1531	3585
1	1398	3586
1	1269	3587
1	1173	3588
1	1112	3589
1	1094	3590
1	1122	3591
1	1188	3592
1	1284	3593
1	1412	3594
1	1538	3595
1	1664	3596
1	1782	3597
1	1878	3598
1	1939	3599
1	1974	3560
1	1958	3561
1	1898	3562
1	1803	3563
1	1674	3564
1	1521	3565
1	1369	3566
1	1237	3567
1	1134	3568
1	1067	3569
1	1055	3570
1	1085	3571
1	1158	3572
1	1265	3573
1	1395	3574
1	1534	3575
1	1671	3576
1	1798	3577
1	1900	3578
1	1962	3579
1	1974	3600
1	1957	3601
1	1899	3602
1	1801	3603
1	1674	3604
1	1534	3605
1	1393	3606
1	1263	3607
1	1170	3608
1	1125	3609
1	1129	3610
1	1181	3611
1	1267	3612
1	1382	3613
1	1527	3614
1	1674	3615
1	1800	3616
1	1899	3617
1	1967	3618
1	2010	3619
1	2018	3620
1	1989	3621
1	1926	3622
1	1832	3623
1	1705	3624
1	1560	3625
1	1416	3626
1	1280	3627
1	1174	3628
1	1110	3629
1	1097	3630
1	1139	3631
1	1215	3632
1	1319	3633
1	1466	3634
1	1600	3635
1	1737	3636
1	1861	3637
1	1962	3638
1	2021	3639
1	2045	3640
1	2027	3641
1	1976	3642
1	1888	3643
1	1769	3644
1	1636	3645
1	1502	3646
1	1377	3647
1	1280	3648
1	1220	3649
1	1200	3650
1	1225	3651
1	1289	3652
1	1384	3653
1	1512	3654
1	1635	3655
1	1753	3656
1	1859	3657
1	1939	3658
1	1989	3659
1	2004	3660
1	1974	3661
1	1908	3662
1	1803	3663
1	1677	3664
1	1541	3665
1	1405	3666
1	1284	3667
1	1200	3668
1	1153	3669
1	1147	3670
1	1190	3671
1	1281	3672
1	1407	3673
1	1548	3674
1	1697	3675
1	1841	3676
1	1958	3677
1	2048	3678
1	2105	3679
1	2130	3680
1	2115	3681
1	2061	3682
1	1965	3683
1	1839	3684
1	1679	3685
1	1521	3686
1	1371	3687
1	1250	3688
1	1171	3689
1	1138	3690
1	1162	3691
1	1224	3692
1	1322	3693
1	1449	3694
1	1574	3695
1	1698	3696
1	1817	3697
1	1909	3698
1	1970	3699
1	1980	3700
1	1950	3701
1	1881	3702
1	1773	3703
1	1643	3704
1	1511	3705
1	1376	3706
1	1258	3707
1	1165	3708
1	1110	3709
1	1098	3710
1	1134	3711
1	1206	3712
1	1310	3713
1	1435	3714
1	1555	3715
1	1685	3716
1	1795	3717
1	1885	3718
1	1935	3719
1	1899	3740
1	1877	3741
1	1818	3742
1	1719	3743
1	1603	3744
1	1469	3745
1	1332	3746
1	1210	3747
1	1114	3748
1	1064	3749
1	1065	3750
1	1120	3751
1	1214	3752
1	1341	3753
1	1485	3754
1	1633	3755
1	1766	3756
1	1890	3757
1	1971	3758
1	2019	3759
1	1952	3720
1	1922	3721
1	1856	3722
1	1753	3723
1	1629	3724
1	1495	3725
1	1359	3726
1	1241	3727
1	1144	3728
1	1083	3729
1	1062	3730
1	1093	3731
1	1158	3732
1	1254	3733
1	1372	3734
1	1503	3735
1	1634	3736
1	1738	3737
1	1823	3738
1	1882	3739
1	2017	3760
1	1985	3761
1	1908	3762
1	1789	3763
1	1648	3764
1	1503	3765
1	1355	3766
1	1226	3767
1	1127	3768
1	1067	3769
1	1049	3770
1	1076	3771
1	1144	3772
1	1245	3773
1	1371	3774
1	1503	3775
1	1634	3776
1	1751	3777
1	1853	3778
1	1917	3779
1	1949	3780
1	1936	3781
1	1880	3782
1	1783	3783
1	1652	3784
1	1503	3785
1	1346	3786
1	1209	3787
1	1104	3788
1	1039	3789
1	1022	3790
1	1055	3791
1	1127	3792
1	1231	3793
1	1358	3794
1	1503	3795
1	1634	3796
1	1751	3797
1	1845	3798
1	1904	3799
1	1920	3800
1	1895	3801
1	1838	3802
1	1750	3803
1	1646	3804
1	1519	3805
1	1398	3806
1	1281	3807
1	1188	3808
1	1125	3809
1	1110	3810
1	1127	3811
1	1184	3812
1	1280	3813
1	1410	3814
1	1544	3815
1	1673	3816
1	1780	3817
1	1860	3818
1	1904	3819
1	1908	3820
1	1884	3821
1	1825	3822
1	1730	3823
1	1611	3824
1	1490	3825
1	1359	3826
1	1243	3827
1	1155	3828
1	1097	3829
1	1080	3830
1	1112	3831
1	1183	3832
1	1287	3833
1	1420	3834
1	1555	3835
1	1687	3836
1	1801	3837
1	1890	3838
1	1942	3839
1	1958	3840
1	1921	3841
1	1854	3842
1	1747	3843
1	1623	3844
1	1459	3845
1	1343	3846
1	1215	3847
1	1123	3848
1	1060	3849
1	1046	3850
1	1075	3851
1	1139	3852
1	1241	3853
1	1368	3854
1	1521	3855
1	1651	3856
1	1760	3857
1	1844	3858
1	1886	3859
1	1894	3860
1	1865	3861
1	1801	3862
1	1713	3863
1	1609	3864
1	1490	3865
1	1371	3866
1	1260	3867
1	1175	3868
1	1124	3869
1	1115	3870
1	1148	3871
1	1219	3872
1	1322	3873
1	1454	3874
1	1593	3875
1	1731	3876
1	1856	3877
1	1953	3878
1	2019	3879
1	2031	3880
1	2010	3881
1	1948	3882
1	1843	3883
1	1703	3884
1	1554	3885
1	1401	3886
1	1263	3887
1	1148	3888
1	1071	3889
1	1042	3890
1	1067	3891
1	1140	3892
1	1258	3893
1	1407	3894
1	1553	3895
1	1699	3896
1	1832	3897
1	1926	3898
1	1986	3899
1	2011	3900
1	1986	3901
1	1922	3902
1	1827	3903
1	1697	3904
1	1553	3905
1	1408	3906
1	1272	3907
1	1173	3908
1	1112	3909
1	1099	3910
1	1136	3911
1	1215	3912
1	1332	3913
1	1476	3914
1	1634	3915
1	1786	3916
1	1922	3917
1	2029	3918
1	2100	3919
1	2122	3920
1	2100	3921
1	2039	3922
1	1944	3923
1	1817	3924
1	1662	3925
1	1516	3926
1	1373	3927
1	1266	3928
1	1194	3929
1	1177	3930
1	1202	3931
1	1266	3932
1	1373	3933
1	1494	3934
1	1634	3935
1	1777	3936
1	1900	3937
1	1987	3938
1	2039	3939
1	2012	3960
1	1985	3961
1	1924	3962
1	1832	3963
1	1705	3964
1	1570	3965
1	1435	3966
1	1308	3967
1	1215	3968
1	1157	3969
1	1135	3970
1	1162	3971
1	1222	3972
1	1319	3973
1	1448	3974
1	1589	3975
1	1720	3976
1	1842	3977
1	1924	3978
1	1974	3979
1	2051	3940
1	2018	3941
1	1954	3942
1	1844	3943
1	1719	3944
1	1586	3945
1	1443	3946
1	1319	3947
1	1220	3948
1	1163	3949
1	1150	3950
1	1181	3951
1	1256	3952
1	1368	3953
1	1503	3954
1	1636	3955
1	1764	3956
1	1872	3957
1	1949	3958
1	1997	3959
1	1981	4000
1	1953	4001
1	1895	4002
1	1803	4003
1	1682	4004
1	1533	4005
1	1379	4006
1	1242	4006
1	1133	4008
1	1062	4009
1	1047	4010
1	1081	4011
1	1162	4012
1	1280	4013
1	1424	4014
1	1572	4014
1	1708	4016
1	1829	4017
1	1908	4018
1	1952	4019
1	1947	4000
1	1904	4001
1	1822	4002
1	1708	4003
1	1573	4004
1	1431	4005
1	1278	4006
1	1140	4006
1	1043	4008
1	991	4009
1	992	4010
1	1043	4011
1	1136	4012
1	1253	4013
1	1397	4014
1	1538	4014
1	1676	4016
1	1796	4017
1	1897	4018
1	1962	4019
1	1935	4040
1	1906	4041
1	1843	4042
1	1738	4043
1	1601	4044
1	1443	4045
1	1286	4046
1	1148	4046
1	1045	4048
1	983	4049
1	977	4050
1	994	4051
1	1066	4052
1	1162	4053
1	1293	4054
1	1437	4054
1	1579	4056
1	1695	4057
1	1785	4058
1	1831	4059
1	1992	4020
1	1971	4021
1	1908	4022
1	1801	4022
1	1661	4024
1	1503	4025
1	1348	4026
1	1215	4027
1	1110	4028
1	1052	4029
1	1037	4030
1	1084	4030
1	1162	4032
1	1271	4033
1	1405	4034
1	1538	4035
1	1665	4036
1	1780	4037
1	1870	4038
1	1922	4038
1	1827	4060
1	1791	4061
1	1727	4062
1	1632	4062
1	1508	4064
1	1377	4065
1	1252	4066
1	1148	4067
1	1080	4068
1	1063	4069
1	1107	4070
1	1202	4070
1	1346	4072
1	1533	4073
1	1748	4074
1	1969	4075
1	2188	4076
1	2412	4077
1	2591	4078
1	2744	4078
1	2861	4080
1	2934	4081
1	2960	4082
1	2935	4083
1	2867	4084
1	2773	4085
1	2673	4086
1	2576	4086
1	2496	4088
1	2432	4089
1	2389	4090
1	2381	4091
1	2404	4092
1	2458	4093
1	2523	4094
1	2599	4094
1	2664	4096
1	2716	4097
1	2740	4098
1	2736	4099
1	2701	4100
1	2634	4101
1	2533	4102
1	2404	4103
1	2236	4104
1	2044	4105
1	1870	4106
1	1712	4107
1	1584	4108
1	1497	4109
1	1464	4110
1	1476	4111
1	1518	4112
1	1592	4113
1	1686	4114
1	1786	4115
1	1881	4116
1	1958	4117
1	2005	4118
1	2016	4119
1	1984	4120
1	1919	4121
1	1817	4122
1	1679	4123
1	1517	4124
1	1353	4125
1	1194	4126
1	1058	4127
1	951	4128
1	878	4129
1	859	4130
1	888	4131
1	963	4132
1	1076	4133
1	1215	4134
1	1358	4135
1	1500	4136
1	1618	4137
1	1710	4138
1	1764	4139
1	1877	4160
1	1854	4161
1	1788	4162
1	1691	4163
1	1564	4164
1	1415	4165
1	1266	4166
1	1134	4167
1	1030	4168
1	963	4169
1	945	4170
1	978	4171
1	1045	4172
1	1157	4173
1	1294	4174
1	1450	4175
1	1593	4176
1	1712	4177
1	1803	4178
1	1859	4179
1	1781	4140
1	1750	4141
1	1685	4142
1	1572	4143
1	1440	4144
1	1282	4145
1	1136	4146
1	1008	4147
1	914	4148
1	867	4149
1	861	4150
1	901	4151
1	983	4152
1	1096	4153
1	1243	4154
1	1415	4155
1	1566	4156
1	1699	4157
1	1796	4158
1	1858	4159
1	1865	4180
1	1845	4181
1	1791	4182
1	1711	4183
1	1604	4184
1	1480	4185
1	1340	4186
1	1211	4187
1	1107	4188
1	1035	4189
1	1013	4190
1	1031	4191
1	1094	4192
1	1199	4193
1	1335	4194
1	1485	4195
1	1629	4196
1	1752	4197
1	1847	4198
1	1897	4199
1	1917	4200
1	1894	4201
1	1824	4202
1	1720	4203
1	1594	4204
1	1451	4205
1	1302	4206
1	1166	4207
1	1060	4208
1	996	4209
1	975	4210
1	1001	4211
1	1068	4212
1	1166	4213
1	1293	4214
1	1446	4215
1	1586	4216
1	1714	4217
1	1817	4218
1	1880	4219
1	1901	4220
1	1881	4221
1	1823	4222
1	1734	4223
1	1622	4224
1	1492	4225
1	1363	4226
1	1241	4227
1	1134	4228
1	1056	4229
1	1016	4230
1	1021	4231
1	1071	4232
1	1166	4233
1	1293	4234
1	1476	4235
1	1597	4236
1	1737	4237
1	1842	4238
1	1901	4239
1	1922	4240
1	1906	4241
1	1850	4242
1	1755	4243
1	1641	4244
1	1508	4245
1	1372	4246
1	1259	4247
1	1174	4248
1	1127	4249
1	1122	4250
1	1157	4251
1	1226	4252
1	1330	4253
1	1459	4254
1	1589	4255
1	1712	4256
1	1823	4257
1	1908	4258
1	1962	4259
1	1985	4260
1	1962	4261
1	1899	4262
1	1799	4263
1	1669	4264
1	1521	4265
1	1364	4266
1	1222	4267
1	1110	4268
1	1037	4269
1	1016	4270
1	1047	4271
1	1130	4272
1	1251	4273
1	1405	4274
1	1566	4275
1	1713	4276
1	1847	4277
1	1943	4278
1	2001	4279
1	2026	4280
1	2014	4281
1	1963	4282
1	1880	4283
1	1760	4284
1	1610	4285
1	1459	4286
1	1311	4287
1	1185	4288
1	1103	4289
1	1062	4290
1	1068	4291
1	1121	4292
1	1219	4293
1	1355	4294
1	1510	4295
1	1664	4296
1	1803	4297
1	1919	4298
1	1993	4299
1	2014	4300
1	2000	4301
1	1941	4302
1	1844	4303
1	1712	4304
1	1581	4305
1	1445	4306
1	1319	4307
1	1225	4308
1	1171	4309
1	1162	4310
1	1200	4311
1	1273	4312
1	1381	4313
1	1517	4314
1	1647	4315
1	1782	4316
1	1898	4317
1	1984	4318
1	2032	4319
1	2048	4320
1	2013	4321
1	1945	4322
1	1844	4323
1	1713	4324
1	1581	4325
1	1450	4326
1	1330	4327
1	1241	4328
1	1188	4329
1	1175	4330
1	1206	4331
1	1273	4332
1	1372	4333
1	1499	4334
1	1634	4335
1	1765	4336
1	1882	4337
1	1971	4338
1	2030	4339
1	2057	4340
1	2048	4341
1	1999	4342
1	1916	4343
1	1807	4344
1	1675	4345
1	1546	4346
1	1422	4347
1	1319	4348
1	1256	4349
1	1232	4350
1	1248	4351
1	1312	4352
1	1405	4353
1	1525	4354
1	1652	4355
1	1778	4356
1	1895	4357
1	1975	4358
1	2024	4359
1	2021	4360
1	1987	4361
1	1922	4362
1	1828	4363
1	1708	4364
1	1582	4365
1	1450	4366
1	1327	4367
1	1233	4368
1	1175	4369
1	1162	4370
1	1193	4371
1	1267	4372
1	1372	4373
1	1510	4374
1	1651	4375
1	1798	4376
1	1935	4377
1	2031	4378
1	2094	4379
1	2114	4380
1	2079	4381
1	2005	4382
1	1888	4383
1	1737	4384
1	1575	4385
1	1413	4386
1	1265	4387
1	1146	4388
1	1063	4389
1	1030	4390
1	1044	4391
1	1110	4392
1	1217	4393
1	1363	4394
1	1525	4395
1	1676	4396
1	1817	4397
1	1926	4398
1	2008	4399
1	2045	4400
1	2039	4401
1	1985	4402
1	1891	4403
1	1761	4404
1	1610	4405
1	1463	4406
1	1322	4407
1	1207	4408
1	1124	4409
1	1089	4410
1	1104	4411
1	1160	4412
1	1247	4413
1	1367	4414
1	1499	4415
1	1634	4416
1	1757	4417
1	1864	4418
1	1939	4419
1	1971	4420
1	1973	4421
1	1935	4422
1	1862	4423
1	1756	4424
1	1634	4425
1	1503	4426
1	1381	4427
1	1284	4428
1	1218	4429
1	1190	4430
1	1206	4431
1	1249	4432
1	1331	4433
1	1433	4434
1	1549	4435
1	1660	4436
1	1757	4437
1	1839	4438
1	1890	4439
1	1908	4440
1	1886	4441
1	1823	4442
1	1723	4443
1	1607	4444
1	1479	4445
1	1346	4446
1	1233	4447
1	1150	4448
1	1105	4449
1	1084	4450
1	1112	4451
1	1181	4452
1	1283	4453
1	1423	4454
1	1573	4455
1	1710	4456
1	1832	4457
1	1922	4458
1	1977	4459
1	1947	4480
1	1945	4481
1	1909	4482
1	1842	4483
1	1724	4484
1	1587	4485
1	1433	4486
1	1280	4487
1	1166	4488
1	1101	4489
1	1084	4490
1	1115	4491
1	1188	4492
1	1297	4493
1	1438	4494
1	1581	4495
1	1729	4496
1	1860	4497
1	1958	4498
1	2016	4499
1	1996	4460
1	1973	4461
1	1921	4462
1	1836	4463
1	1712	4464
1	1568	4465
1	1420	4466
1	1278	4467
1	1170	4468
1	1103	4469
1	1083	4470
1	1110	4471
1	1183	4472
1	1279	4473
1	1401	4474
1	1531	4475
1	1661	4476
1	1775	4477
1	1869	4478
1	1924	4479
1	2042	4500
1	2017	4501
1	1953	4502
1	1851	4503
1	1713	4504
1	1567	4505
1	1417	4506
1	1278	4507
1	1171	4508
1	1105	4509
1	1080	4510
1	1109	4511
1	1174	4512
1	1269	4513
1	1398	4514
1	1544	4515
1	1686	4516
1	1821	4517
1	1922	4518
1	1995	4519
1	2025	4520
1	2011	4521
1	1961	4522
1	1873	4523
1	1750	4524
1	1604	4525
1	1454	4526
1	1318	4527
1	1199	4528
1	1121	4529
1	1088	4530
1	1107	4531
1	1168	4532
1	1278	4533
1	1400	4534
1	1560	4535
1	1660	4536
1	1775	4537
1	1869	4538
1	1922	4539
1	1944	4540
1	1922	4541
1	1869	4542
1	1779	4543
1	1663	4544
1	1528	4545
1	1397	4546
1	1268	4547
1	1172	4548
1	1122	4549
1	1110	4550
1	1143	4551
1	1220	4552
1	1332	4553
1	1472	4554
1	1609	4555
1	1750	4556
1	1877	4557
1	1974	4558
1	2041	4559
1	2075	4560
1	2051	4561
1	1976	4562
1	1870	4563
1	1734	4564
1	1584	4565
1	1437	4566
1	1304	4567
1	1205	4568
1	1143	4569
1	1124	4570
1	1158	4571
1	1229	4572
1	1335	4573
1	1471	4574
1	1617	4575
1	1755	4576
1	1877	4577
1	1971	4578
1	2030	4579
1	2058	4580
1	2050	4581
1	2002	4582
1	1921	4583
1	1808	4584
1	1670	4585
1	1531	4586
1	1399	4587
1	1286	4588
1	1219	4589
1	1207	4590
1	1240	4591
1	1310	4592
1	1415	4593
1	1537	4594
1	1673	4595
1	1815	4596
1	1940	4597
1	2047	4598
1	2120	4599
1	2146	4600
1	2133	4601
1	2079	4602
1	1985	4603
1	1860	4604
1	1727	4605
1	1587	4606
1	1459	4607
1	1357	4608
1	1296	4609
1	1279	4610
1	1303	4611
1	1359	4612
1	1450	4613
1	1565	4614
1	1686	4615
1	1817	4616
1	1926	4617
1	2019	4618
1	2081	4619
1	2114	4620
1	2100	4621
1	2048	4622
1	1958	4623
1	1844	4624
1	1712	4625
1	1584	4626
1	1466	4627
1	1366	4628
1	1305	4629
1	1281	4630
1	1305	4631
1	1367	4632
1	1451	4633
1	1557	4634
1	1678	4635
1	1791	4636
1	1895	4637
1	1971	4638
1	2014	4639
1	2024	4640
1	2000	4641
1	1950	4642
1	1873	4643
1	1764	4644
1	1634	4645
1	1499	4646
1	1366	4647
1	1260	4648
1	1188	4649
1	1157	4650
1	1165	4651
1	1224	4652
1	1322	4653
1	1458	4654
1	1606	4655
1	1750	4656
1	1875	4657
1	1971	4658
1	2026	4659
1	2042	4660
1	2026	4661
1	1971	4662
1	1872	4663
1	1737	4664
1	1594	4665
1	1446	4666
1	1309	4667
1	1202	4668
1	1135	4669
1	1114	4670
1	1144	4671
1	1215	4672
1	1317	4673
1	1441	4674
1	1572	4675
1	1712	4676
1	1843	4677
1	1947	4678
1	2014	4679
1	2052	4680
1	2040	4681
1	1985	4682
1	1893	4683
1	1760	4684
1	1608	4685
1	1457	4686
1	1315	4687
1	1209	4688
1	1134	4689
1	1110	4690
1	1131	4691
1	1191	4692
1	1293	4693
1	1433	4694
1	1584	4695
1	1728	4696
1	1855	4697
1	1948	4698
1	2007	4699
1	2026	4700
1	2004	4701
1	1943	4702
1	1840	4703
1	1703	4704
1	1556	4705
1	1414	4706
1	1285	4707
1	1184	4708
1	1116	4709
1	1094	4710
1	1116	4711
1	1184	4712
1	1290	4713
1	1425	4714
1	1574	4715
1	1718	4716
1	1851	4717
1	1948	4718
1	2006	4719
1	2014	4720
1	1981	4721
1	1908	4722
1	1795	4723
1	1661	4724
1	1516	4725
1	1364	4726
1	1224	4727
1	1121	4728
1	1058	4729
1	1044	4730
1	1076	4731
1	1146	4732
1	1256	4733
1	1381	4734
1	1510	4735
1	1625	4736
1	1715	4737
1	1790	4738
1	1834	4739
1	1840	4740
1	1803	4741
1	1743	4742
1	1657	4743
1	1555	4744
1	1435	4745
1	1305	4746
1	1191	4747
1	1114	4748
1	1085	4749
1	1109	4750
1	1188	4751
1	1319	4752
1	1499	4753
1	1710	4754
1	1947	4755
1	2168	4756
1	2386	4757
1	2567	4758
1	2717	4759
1	2829	4760
1	2898	4761
1	2932	4762
1	2922	4763
1	2875	4764
1	2795	4765
1	2706	4766
1	2626	4767
1	2568	4768
1	2542	4769
1	2561	4770
1	2602	4771
1	2672	4772
1	2758	4773
1	2851	4774
1	2934	4775
1	3005	4776
1	3052	4777
1	3072	4778
1	3053	4779
1	2125	4800
1	2058	4801
1	1957	4802
1	1816	4803
1	1642	4804
1	1463	4805
1	1291	4806
1	1148	4807
1	1042	4808
1	970	4809
1	931	4810
1	949	4811
1	1017	4812
1	1116	4813
1	1250	4814
1	1400	4815
1	1530	4816
1	1642	4817
1	1728	4818
1	1785	4819
1	2998	4780
1	2904	4781
1	2781	4782
1	2624	4783
1	2445	4784
1	2244	4785
1	2038	4786
1	1854	4787
1	1703	4788
1	1599	4789
1	1542	4790
1	1539	4791
1	1585	4792
1	1674	4793
1	1785	4794
1	1895	4795
1	1996	4796
1	2075	4797
1	2124	4798
1	2141	4799
1	1811	4820
1	1793	4821
1	1746	4822
1	1665	4823
1	1553	4824
1	1420	4825
1	1279	4826
1	1155	4827
1	1053	4828
1	991	4829
1	980	4830
1	1018	4831
1	1091	4832
1	1213	4833
1	1343	4834
1	1521	4835
1	1634	4836
1	1770	4837
1	1881	4838
1	1940	4839
1	1956	4840
1	1924	4841
1	1857	4842
1	1749	4843
1	1610	4844
1	1453	4845
1	1293	4846
1	1150	4847
1	1031	4848
1	959	4849
1	940	4850
1	991	4851
1	1088	4852
1	1228	4853
1	1398	4854
1	1557	4855
1	1712	4856
1	1846	4857
1	1944	4858
1	1991	4859
1	2008	4860
1	1976	4861
1	1908	4862
1	1792	4863
1	1647	4864
1	1485	4865
1	1315	4866
1	1162	4867
1	1047	4868
1	974	4869
1	945	4870
1	979	4871
1	1058	4872
1	1176	4873
1	1319	4874
1	1481	4875
1	1629	4876
1	1751	4877
1	1848	4878
1	1908	4879
1	1926	4880
1	1906	4881
1	1856	4882
1	1770	4883
1	1660	4884
1	1531	4885
1	1400	4886
1	1277	4887
1	1176	4888
1	1110	4889
1	1094	4890
1	1123	4891
1	1190	4892
1	1289	4893
1	1416	4894
1	1553	4895
1	1686	4896
1	1811	4897
1	1898	4898
1	1953	4899
1	1959	4900
1	1931	4901
1	1868	4902
1	1764	4903
1	1638	4904
1	1507	4905
1	1368	4906
1	1243	4907
1	1158	4908
1	1110	4909
1	1097	4910
1	1125	4911
1	1187	4912
1	1274	4913
1	1384	4914
1	1508	4915
1	1634	4916
1	1742	4917
1	1840	4918
1	1907	4919
1	1948	4920
1	1944	4921
1	1901	4922
1	1818	4923
1	1697	4924
1	1556	4925
1	1415	4926
1	1279	4927
1	1175	4928
1	1109	4929
1	1076	4930
1	1097	4931
1	1166	4932
1	1279	4933
1	1424	4934
1	1581	4935
1	1730	4936
1	1856	4937
1	1959	4938
1	2019	4939
1	2029	4940
1	2008	4941
1	1946	4942
1	1850	4943
1	1731	4944
1	1594	4945
1	1456	4946
1	1319	4947
1	1207	4948
1	1129	4949
1	1097	4950
1	1114	4951
1	1184	4952
1	1279	4953
1	1410	4954
1	1553	4955
1	1698	4956
1	1834	4957
1	1939	4958
1	2005	4959
1	2025	4960
1	2002	4961
1	1942	4962
1	1847	4963
1	1714	4964
1	1576	4965
1	1434	4966
1	1301	4967
1	1201	4968
1	1139	4969
1	1122	4970
1	1149	4971
1	1216	4972
1	1319	4973
1	1456	4974
1	1595	4975
1	1731	4976
1	1849	4977
1	1945	4978
1	2007	4979
1	2043	4980
1	2035	4981
1	1989	4982
1	1904	4983
1	1780	4984
1	1636	4985
1	1491	4986
1	1353	4987
1	1246	4988
1	1175	4989
1	1143	4990
1	1158	4991
1	1214	4992
1	1307	4993
1	1435	4994
1	1578	4995
1	1720	4996
1	1855	4997
1	1963	4998
1	2039	4999
1	2068	5000
1	2060	5001
1	2015	5002
1	1932	5003
1	1817	5004
1	1665	5005
1	1523	5006
1	1382	5007
1	1273	5008
1	1213	5009
1	1206	5010
1	1238	5011
1	1305	5012
1	1407	5013
1	1529	5014
1	1664	5015
1	1796	5016
1	1908	5017
1	1987	5018
1	2035	5019
1	2043	5020
1	2027	5021
1	1979	5022
1	1903	5023
1	1782	5024
1	1649	5025
1	1507	5026
1	1373	5027
1	1267	5028
1	1204	5029
1	1196	5030
1	1240	5031
1	1319	5032
1	1445	5033
1	1581	5034
1	1719	5035
1	1845	5036
1	1948	5037
1	2027	5038
1	2079	5039
1	2102	5040
1	2082	5041
1	2025	5042
1	1922	5043
1	1790	5044
1	1631	5045
1	1466	5046
1	1310	5047
1	1188	5048
1	1111	5049
1	1079	5050
1	1101	5051
1	1173	5052
1	1287	5053
1	1429	5054
1	1584	5055
1	1724	5056
1	1853	5057
1	1948	5058
1	2014	5059
1	2045	5060
1	2036	5061
1	1992	5062
1	1914	5063
1	1800	5064
1	1660	5065
1	1517	5066
1	1380	5067
1	1269	5068
1	1196	5069
1	1170	5070
1	1188	5071
1	1249	5072
1	1343	5073
1	1464	5074
1	1598	5075
1	1737	5076
1	1859	5077
1	1951	5078
1	2004	5079
1	2012	5080
1	1989	5081
1	1926	5082
1	1830	5083
1	1697	5084
1	1553	5085
1	1399	5086
1	1250	5087
1	1134	5088
1	1058	5089
1	1031	5090
1	1055	5091
1	1123	5092
1	1215	5093
1	1340	5094
1	1489	5095
1	1643	5096
1	1789	5097
1	1907	5098
1	1983	5099
1	2026	5100
1	2014	5101
1	1959	5102
1	1862	5103
1	1733	5104
1	1587	5105
1	1445	5106
1	1316	5107
1	1215	5108
1	1148	5109
1	1121	5110
1	1142	5111
1	1207	5112
1	1304	5113
1	1425	5114
1	1566	5115
1	1699	5116
1	1829	5117
1	1927	5118
1	1991	5119
1	2018	5120
1	2012	5121
1	1962	5122
1	1869	5123
1	1737	5124
1	1578	5125
1	1418	5126
1	1269	5127
1	1160	5128
1	1085	5129
1	1059	5130
1	1084	5131
1	1150	5132
1	1261	5133
1	1398	5134
1	1550	5135
1	1677	5136
1	1791	5137
1	1881	5138
1	1934	5139
1	1953	5140
1	1934	5141
1	1877	5142
1	1787	5143
1	1665	5144
1	1530	5145
1	1400	5146
1	1278	5147
1	1179	5148
1	1125	5149
1	1110	5150
1	1143	5151
1	1219	5152
1	1330	5153
1	1468	5154
1	1605	5155
1	1734	5156
1	1845	5157
1	1933	5158
1	1999	5159
1	2027	5160
1	2009	5161
1	1948	5162
1	1843	5163
1	1705	5164
1	1553	5165
1	1384	5166
1	1237	5167
1	1117	5168
1	1036	5169
1	1005	5170
1	1026	5171
1	1096	5172
1	1202	5173
1	1341	5174
1	1492	5175
1	1636	5176
1	1764	5177
1	1872	5178
1	1946	5179
1	1976	5180
1	1962	5181
1	1910	5182
1	1827	5183
1	1712	5184
1	1581	5185
1	1448	5186
1	1318	5187
1	1213	5188
1	1140	5189
1	1113	5190
1	1131	5191
1	1184	5192
1	1267	5193
1	1396	5194
1	1528	5195
1	1660	5196
1	1785	5197
1	1890	5198
1	1963	5199
1	1992	5200
1	1985	5201
1	1935	5202
1	1844	5203
1	1714	5204
1	1575	5205
1	1427	5206
1	1288	5207
1	1175	5208
1	1099	5209
1	1072	5210
1	1093	5211
1	1158	5212
1	1256	5213
1	1382	5214
1	1513	5215
1	1646	5216
1	1769	5217
1	1872	5218
1	1945	5219
1	1980	5240
1	1973	5241
1	1931	5242
1	1856	5243
1	1739	5244
1	1604	5245
1	1459	5246
1	1319	5247
1	1206	5248
1	1128	5249
1	1093	5250
1	1121	5251
1	1194	5252
1	1306	5253
1	1450	5254
1	1603	5255
1	1760	5256
1	1880	5257
1	1965	5258
1	2024	5259
1	2035	5240
1	2006	5241
1	1942	5242
1	1840	5243
1	1701	5244
1	1544	5245
1	1395	5246
1	1250	5247
1	1139	5248
1	1071	5249
1	1053	5250
1	1084	5251
1	1164	5252
1	1281	5253
1	1428	5254
1	1581	5255
1	1729	5256
1	1858	5257
1	1958	5258
1	2022	5259
1	2041	5260
1	2021	5261
1	1962	5262
1	1868	5263
1	1727	5264
1	1577	5265
1	1425	5266
1	1283	5267
1	1176	5268
1	1109	5269
1	1084	5270
1	1112	5271
1	1188	5272
1	1305	5273
1	1456	5274
1	1615	5275
1	1766	5276
1	1901	5277
1	2008	5278
1	2079	5279
1	2122	5280
1	2115	5281
1	2061	5282
1	1972	5283
1	1845	5284
1	1699	5285
1	1556	5286
1	1429	5287
1	1325	5288
1	1259	5289
1	1224	5290
1	1241	5291
1	1301	5292
1	1409	5293
1	1546	5294
1	1701	5295
1	1850	5296
1	1974	5297
1	2067	5298
1	2126	5299
1	2143	5300
1	2124	5301
1	2066	5302
1	1981	5303
1	1869	5304
1	1731	5305
1	1591	5306
1	1452	5307
1	1332	5308
1	1249	5309
1	1217	5310
1	1238	5311
1	1301	5312
1	1406	5313
1	1535	5314
1	1678	5315
1	1819	5316
1	1940	5317
1	2027	5318
1	2079	5319
1	2083	5320
1	2057	5321
1	1995	5322
1	1897	5323
1	1769	5324
1	1638	5325
1	1495	5326
1	1356	5327
1	1247	5328
1	1175	5329
1	1151	5330
1	1176	5331
1	1243	5332
1	1354	5333
1	1497	5334
1	1652	5335
1	1796	5336
1	1922	5337
1	2013	5338
1	2074	5339
1	2090	5340
1	2066	5341
1	2000	5342
1	1896	5343
1	1769	5344
1	1616	5345
1	1450	5346
1	1291	5347
1	1162	5348
1	1081	5349
1	1049	5350
1	1070	5351
1	1137	5352
1	1242	5353
1	1372	5354
1	1529	5355
1	1674	5356
1	1803	5357
1	1910	5358
1	1976	5359
1	2004	5360
1	1990	5361
1	1939	5362
1	1853	5363
1	1734	5364
1	1595	5365
1	1461	5366
1	1332	5367
1	1231	5368
1	1163	5369
1	1137	5370
1	1152	5371
1	1210	5372
1	1296	5373
1	1416	5374
1	1537	5375
1	1656	5376
1	1763	5377
1	1854	5378
1	1911	5379
1	1926	5380
1	1909	5381
1	1856	5382
1	1759	5383
1	1633	5384
1	1492	5385
1	1347	5386
1	1225	5387
1	1131	5388
1	1071	5389
1	1058	5390
1	1091	5391
1	1161	5392
1	1269	5393
1	1413	5394
1	1569	5395
1	1718	5396
1	1850	5397
1	1953	5398
1	2025	5399
1	2063	5400
1	2052	5401
1	2002	5402
1	1917	5403
1	1795	5404
1	1659	5405
1	1520	5406
1	1391	5407
1	1280	5408
1	1201	5409
1	1158	5410
1	1162	5411
1	1202	5412
1	1279	5413
1	1391	5414
1	1517	5415
1	1634	5416
1	1742	5417
1	1834	5418
1	1896	5419
1	1922	5420
1	1908	5421
1	1853	5422
1	1751	5423
1	1618	5424
1	1462	5425
1	1307	5426
1	1163	5427
1	1047	5428
1	963	5429
1	939	5430
1	970	5431
1	1057	5432
1	1181	5433
1	1334	5434
1	1512	5435
1	1665	5436
1	1823	5437
1	1963	5438
1	2071	5439
1	2148	5440
1	2191	5441
1	2199	5442
1	2180	5443
1	2135	5444
1	2082	5445
1	2032	5446
1	1996	5447
1	1985	5448
1	2014	5449
1	2075	5450
1	2174	5451
1	2314	5452
1	2485	5453
1	2656	5454
1	2843	5455
1	3035	5456
1	3130	5457
1	3130	5458
1	3130	5459
1	3130	5460
1	3130	5461
1	3130	5462
1	3071	5463
1	2888	5464
1	2694	5465
1	2498	5466
1	2294	5467
1	2124	5468
1	2000	5469
1	1913	5470
1	1882	5471
1	1898	5472
1	1949	5473
1	2034	5474
1	2145	5475
1	2259	5476
1	2350	5477
1	2423	5478
1	2461	5479
1	2460	5480
1	2413	5481
1	2317	5482
1	2174	5483
1	2003	5484
1	1800	5485
1	1598	5486
1	1414	5487
1	1255	5488
1	1138	5489
1	1080	5490
1	1068	5491
1	1099	5492
1	1172	5493
1	1278	5494
1	1398	5495
1	1508	5496
1	1607	5497
1	1681	5498
1	1731	5499
1	1741	5500
1	1723	5501
1	1674	5502
1	1596	5503
1	1490	5504
1	1372	5505
1	1247	5506
1	1141	5507
1	1059	5508
1	1011	5509
1	1005	5510
1	1046	5511
1	1125	5512
1	1233	5513
1	1364	5514
1	1497	5515
1	1611	5516
1	1705	5517
1	1769	5518
1	1816	5519
1	1961	5540
1	1947	5541
1	1895	5542
1	1802	5543
1	1681	5544
1	1535	5545
1	1382	5546
1	1242	5547
1	1134	5548
1	1057	5549
1	1026	5550
1	1048	5551
1	1112	5552
1	1209	5553
1	1337	5554
1	1490	5555
1	1635	5556
1	1764	5557
1	1866	5558
1	1938	5559
1	1832	5520
1	1809	5521
1	1752	5522
1	1672	5523
1	1564	5524
1	1442	5525
1	1310	5526
1	1188	5527
1	1096	5528
1	1040	5529
1	1023	5530
1	1058	5531
1	1136	5532
1	1241	5533
1	1373	5534
1	1525	5535
1	1660	5536
1	1775	5537
1	1877	5538
1	1939	5539
1	1967	5560
1	1963	5561
1	1921	5562
1	1835	5563
1	1709	5564
1	1569	5565
1	1423	5566
1	1280	5567
1	1171	5568
1	1097	5569
1	1071	5570
1	1085	5571
1	1140	5572
1	1229	5573
1	1341	5574
1	1466	5575
1	1593	5576
1	1711	5577
1	1814	5578
1	1879	5579
1	1912	5580
1	1899	5581
1	1852	5582
1	1769	5583
1	1672	5584
1	1563	5585
1	1449	5586
1	1337	5587
1	1251	5588
1	1194	5589
1	1175	5590
1	1197	5591
1	1260	5592
1	1351	5593
1	1479	5594
1	1620	5595
1	1755	5596
1	1870	5597
1	1955	5598
1	2003	5599
1	2016	5600
1	1998	5601
1	1942	5602
1	1856	5603
1	1733	5604
1	1586	5605
1	1445	5606
1	1311	5607
1	1206	5608
1	1139	5609
1	1122	5610
1	1142	5611
1	1202	5612
1	1292	5613
1	1404	5614
1	1534	5615
1	1674	5616
1	1815	5617
1	1930	5618
1	2014	5619
1	2052	5620
1	2047	5621
1	2000	5622
1	1913	5623
1	1791	5624
1	1667	5625
1	1531	5626
1	1405	5627
1	1293	5628
1	1220	5629
1	1188	5630
1	1197	5631
1	1244	5632
1	1335	5633
1	1464	5634
1	1598	5635
1	1736	5636
1	1855	5637
1	1951	5638
1	2012	5639
1	2030	5640
1	2009	5641
1	1949	5642
1	1856	5643
1	1736	5644
1	1606	5645
1	1469	5646
1	1337	5647
1	1233	5648
1	1165	5649
1	1138	5650
1	1161	5651
1	1225	5652
1	1332	5653
1	1474	5654
1	1641	5655
1	1795	5656
1	1938	5657
1	2043	5658
1	2113	5659
1	2146	5660
1	2142	5661
1	2097	5662
1	2012	5663
1	1895	5664
1	1747	5665
1	1606	5666
1	1469	5667
1	1351	5668
1	1271	5669
1	1235	5670
1	1238	5671
1	1284	5672
1	1372	5673
1	1499	5674
1	1639	5675
1	1782	5676
1	1909	5677
1	2003	5678
1	2066	5679
1	2079	5680
1	2061	5681
1	2006	5682
1	1921	5683
1	1802	5684
1	1683	5685
1	1553	5686
1	1430	5687
1	1332	5688
1	1271	5689
1	1249	5690
1	1279	5691
1	1351	5692
1	1466	5693
1	1603	5694
1	1745	5695
1	1890	5696
1	2013	5697
1	2114	5698
1	2183	5699
1	2220	5700
1	2210	5701
1	2163	5702
1	2079	5703
1	1970	5704
1	1838	5705
1	1697	5706
1	1568	5707
1	1469	5708
1	1404	5709
1	1368	5710
1	1379	5711
1	1440	5712
1	1530	5713
1	1651	5714
1	1782	5715
1	1909	5716
1	2018	5717
1	2105	5718
1	2158	5719
1	2176	5720
1	2157	5721
1	2102	5722
1	2013	5723
1	1895	5724
1	1744	5725
1	1596	5726
1	1456	5727
1	1341	5728
1	1269	5729
1	1242	5730
1	1263	5731
1	1341	5732
1	1423	5733
1	1556	5734
1	1691	5735
1	1835	5736
1	1945	5737
1	2034	5738
1	2088	5739
1	2110	5740
1	2091	5741
1	2040	5742
1	1961	5743
1	1850	5744
1	1712	5745
1	1578	5746
1	1449	5747
1	1350	5748
1	1305	5749
1	1294	5750
1	1325	5751
1	1395	5752
1	1489	5753
1	1607	5754
1	1733	5755
1	1856	5756
1	1963	5757
1	2051	5758
1	2103	5759
1	2130	5760
1	2118	5761
1	2073	5762
1	1994	5763
1	1881	5764
1	1744	5765
1	1605	5766
1	1467	5767
1	1346	5768
1	1260	5769
1	1215	5770
1	1228	5771
1	1289	5772
1	1395	5773
1	1527	5774
1	1676	5775
1	1828	5776
1	1959	5777
1	2066	5778
1	2133	5779
1	2161	5780
1	2148	5781
1	2094	5782
1	2003	5783
1	1875	5784
1	1715	5785
1	1563	5786
1	1424	5787
1	1309	5788
1	1232	5789
1	1212	5790
1	1235	5791
1	1307	5792
1	1422	5793
1	1555	5794
1	1700	5795
1	1842	5796
1	1950	5797
1	2031	5798
1	2083	5799
1	2093	5800
1	2071	5801
1	2023	5802
1	1935	5803
1	1818	5804
1	1685	5805
1	1537	5806
1	1399	5807
1	1287	5808
1	1214	5809
1	1189	5810
1	1228	5811
1	1315	5812
1	1442	5813
1	1592	5814
1	1738	5815
1	1883	5816
1	2010	5817
1	2109	5818
1	2174	5819
1	2206	5820
1	2184	5821
1	2130	5822
1	2039	5823
1	1922	5824
1	1782	5825
1	1638	5826
1	1503	5827
1	1382	5828
1	1301	5829
1	1265	5830
1	1275	5831
1	1332	5832
1	1431	5833
1	1554	5834
1	1686	5835
1	1827	5836
1	1948	5837
1	2013	5838
1	2077	5839
1	2105	5880
1	2070	5881
1	2011	5882
1	1924	5883
1	1817	5884
1	1686	5885
1	1554	5886
1	1428	5887
1	1322	5888
1	1262	5889
1	1237	5890
1	1268	5891
1	1346	5892
1	1466	5893
1	1604	5894
1	1756	5895
1	1904	5896
1	2030	5897
1	2132	5898
1	2201	5899
1	2094	5840
1	2064	5841
1	1991	5842
1	1882	5843
1	1751	5844
1	1610	5845
1	1481	5846
1	1361	5847
1	1273	5848
1	1216	5849
1	1206	5850
1	1241	5851
1	1323	5852
1	1437	5853
1	1573	5854
1	1715	5855
1	1867	5856
1	1995	5857
1	2100	5858
1	2166	5859
1	2186	5860
1	2171	5861
1	2117	5862
1	2029	5863
1	1911	5864
1	1777	5865
1	1633	5866
1	1489	5867
1	1369	5868
1	1292	5869
1	1258	5870
1	1275	5871
1	1333	5872
1	1431	5873
1	1551	5874
1	1685	5875
1	1821	5876
1	1940	5877
1	2028	5878
1	2084	5879
1	2232	5900
1	2214	5901
1	2166	5902
1	2079	5903
1	1962	5904
1	1812	5905
1	1646	5906
1	1488	5907
1	1351	5908
1	1263	5909
1	1230	5910
1	1243	5911
1	1306	5912
1	1409	5913
1	1541	5914
1	1687	5915
1	1842	5916
1	1975	5917
1	2084	5918
1	2158	5919
1	2184	5920
1	2175	5921
1	2130	5922
1	2052	5923
1	1942	5924
1	1813	5925
1	1662	5926
1	1523	5927
1	1398	5928
1	1299	5929
1	1251	5930
1	1258	5931
1	1307	5932
1	1403	5933
1	1531	5934
1	1686	5935
1	1851	5936
1	1994	5937
1	2112	5938
1	2193	5939
1	2278	5960
1	2274	5961
1	2235	5962
1	2156	5963
1	2050	5964
1	1913	5965
1	1773	5966
1	1644	5967
1	1529	5968
1	1441	5969
1	1398	5970
1	1398	5971
1	1444	5972
1	1531	5973
1	1652	5974
1	1788	5975
1	1932	5976
1	2063	5977
1	2170	5978
1	2244	5979
1	2362	6000
1	2341	6001
1	2284	6002
1	2183	6003
1	2053	6004
1	1908	6005
1	1755	6006
1	1610	6007
1	1490	6008
1	1409	6009
1	1362	6010
1	1373	6011
1	1430	6012
1	1520	6013
1	1637	6014
1	1782	6015
1	1922	6016
1	2052	6017
1	2159	6018
1	2239	6019
1	2266	5980
1	2255	5981
1	2206	5982
1	2131	5983
1	2032	5984
1	1927	5985
1	1813	5986
1	1698	5987
1	1605	5988
1	1543	5989
1	1513	5990
1	1530	5991
1	1591	5992
1	1686	5993
1	1801	5994
1	1929	5995
1	2055	5996
1	2170	5997
1	2265	5998
1	2328	5999
1	2222	5940
1	2204	5941
1	2152	5942
1	2068	5943
1	1968	5944
1	1843	5945
1	1699	5946
1	1564	5947
1	1447	5948
1	1358	5949
1	1310	5950
1	1319	5951
1	1376	5952
1	1485	5953
1	1620	5954
1	1779	5955
1	1922	5956
1	2052	5957
1	2159	5958
1	2241	5959
1	2274	6020
1	2266	6021
1	2215	6022
1	2135	6023
1	2025	6024
1	1883	6025
1	1736	6026
1	1593	6027
1	1472	6028
1	1394	6029
1	1370	6030
1	1398	6031
1	1466	6032
1	1574	6033
1	1700	6034
1	1849	6035
1	1980	6036
1	2106	6037
1	2208	6038
1	2271	6039
1	2288	6040
1	2267	6041
1	2201	6042
1	2102	6043
1	1970	6044
1	1817	6045
1	1661	6046
1	1520	6047
1	1400	6048
1	1325	6049
1	1293	6050
1	1310	6051
1	1373	6052
1	1478	6053
1	1607	6054
1	1740	6055
1	1883	6056
1	2013	6057
1	2117	6058
1	2187	6059
1	2233	6060
1	2218	6061
1	2169	6062
1	2079	6063
1	1957	6064
1	1818	6065
1	1674	6066
1	1546	6067
1	1440	6068
1	1363	6069
1	1327	6070
1	1340	6071
1	1398	6072
1	1487	6073
1	1603	6074
1	1738	6075
1	1883	6076
1	2014	6077
1	2116	6078
1	2183	6079
1	2211	6080
1	2201	6081
1	2156	6082
1	2075	6083
1	1961	6084
1	1817	6085
1	1669	6086
1	1530	6087
1	1419	6088
1	1333	6089
1	1314	6090
1	1337	6091
1	1413	6092
1	1517	6093
1	1643	6094
1	1779	6095
1	1921	6096
1	2044	6097
1	2146	6098
1	2212	6099
1	2240	6100
1	2231	6101
1	2175	6102
1	2086	6103
1	1962	6104
1	1822	6105
1	1661	6106
1	1517	6107
1	1398	6108
1	1315	6109
1	1283	6110
1	1304	6111
1	1367	6112
1	1466	6113
1	1584	6114
1	1712	6115
1	1848	6116
1	1970	6117
1	2068	6118
1	2140	6119
1	2181	6120
1	2174	6121
1	2133	6122
1	2060	6123
1	1962	6124
1	1856	6125
1	1746	6126
1	1652	6127
1	1589	6128
1	1569	6129
1	1598	6130
1	1686	6131
1	1827	6132
1	2010	6133
1	2221	6134
1	2458	6135
1	2681	6136
1	2934	6137
1	3075	6138
1	3130	6139
1	3130	6140
1	3130	6141
1	3130	6142
1	3130	6143
1	3130	6144
1	3130	6145
1	3078	6146
1	2946	6147
1	2821	6148
1	2712	6149
1	2626	6150
1	2567	6151
1	2545	6152
1	2551	6153
1	2591	6154
1	2653	6155
1	2718	6156
1	2774	6157
1	2803	6158
1	2795	6159
1	2745	6160
1	2665	6161
1	2562	6162
1	2441	6163
1	2283	6164
1	2120	6165
1	1965	6166
1	1831	6167
1	1716	6168
1	1636	6169
1	1592	6170
1	1582	6171
1	1611	6172
1	1675	6173
1	1760	6174
1	1845	6175
1	1926	6176
1	2000	6177
1	2052	6178
1	2083	6179
1	2090	6180
1	2060	6181
1	1994	6182
1	1905	6183
1	1780	6184
1	1635	6185
1	1490	6186
1	1350	6187
1	1241	6188
1	1161	6189
1	1122	6190
1	1136	6191
1	1197	6192
1	1295	6193
1	1426	6194
1	1571	6195
1	1718	6196
1	1856	6197
1	1962	6198
1	2039	6199
1	2079	6200
1	2083	6201
1	2045	6202
1	1968	6203
1	1856	6204
1	1716	6205
1	1581	6206
1	1450	6207
1	1340	6208
1	1265	6209
1	1240	6210
1	1260	6211
1	1327	6212
1	1433	6213
1	1564	6214
1	1710	6215
1	1859	6216
1	1989	6217
1	2094	6218
1	2170	6219
1	2288	6260
1	2275	6261
1	2217	6262
1	2121	6263
1	1992	6264
1	1837	6265
1	1679	6266
1	1533	6267
1	1422	6268
1	1342	6269
1	1319	6270
1	1332	6271
1	1393	6272
1	1484	6273
1	1608	6274
1	1752	6275
1	1904	6276
1	2031	6277
1	2133	6278
1	2197	6279
1	2155	6240
1	2152	6241
1	2106	6242
1	2026	6243
1	1921	6244
1	1788	6245
1	1652	6246
1	1529	6247
1	1430	6248
1	1358	6249
1	1323	6250
1	1344	6251
1	1415	6252
1	1520	6253
1	1647	6254
1	1803	6255
1	1948	6256
1	2079	6257
1	2183	6258
1	2261	6259
1	2202	6220
1	2197	6221
1	2157	6222
1	2076	6223
1	1963	6224
1	1837	6225
1	1686	6226
1	1539	6227
1	1418	6228
1	1327	6229
1	1289	6230
1	1300	6231
1	1346	6232
1	1437	6233
1	1554	6234
1	1686	6235
1	1820	6236
1	1944	6237
1	2045	6238
1	2118	6239
1	2222	6280
1	2214	6281
1	2176	6282
1	2106	6283
1	2000	6284
1	1870	6285
1	1724	6286
1	1581	6287
1	1458	6288
1	1364	6289
1	1308	6290
1	1312	6291
1	1370	6292
1	1476	6293
1	1620	6294
1	1778	6295
1	1936	6296
1	2075	6297
1	2180	6298
1	2251	6299
1	2284	6300
1	2271	6301
1	2219	6302
1	2133	6303
1	2023	6304
1	1893	6305
1	1752	6306
1	1625	6307
1	1517	6308
1	1443	6309
1	1398	6310
1	1401	6311
1	1453	6312
1	1543	6313
1	1665	6314
1	1816	6315
1	1954	6316
1	2083	6317
1	2193	6318
1	2276	6319
1	2314	6320
1	2313	6321
1	2270	6322
1	2183	6323
1	2070	6324
1	1922	6325
1	1765	6326
1	1623	6327
1	1503	6328
1	1424	6329
1	1400	6330
1	1429	6331
1	1497	6332
1	1600	6333
1	1720	6334
1	1867	6335
1	1991	6336
1	2107	6337
1	2201	6338
1	2271	6339
1	2304	6340
1	2296	6341
1	2250	6342
1	2161	6343
1	2048	6344
1	1904	6345
1	1760	6346
1	1621	6347
1	1503	6348
1	1426	6349
1	1383	6350
1	1397	6351
1	1454	6352
1	1555	6353
1	1682	6354
1	1820	6355
1	1958	6356
1	2084	6357
1	2191	6358
1	2271	6359
1	2315	6360
1	2314	6361
1	2276	6362
1	2194	6363
1	2088	6364
1	1961	6365
1	1830	6366
1	1697	6367
1	1586	6368
1	1510	6369
1	1475	6370
1	1490	6371
1	1546	6372
1	1634	6373
1	1751	6374
1	1892	6375
1	2025	6376
1	2144	6377
1	2246	6378
1	2314	6379
1	2341	6380
1	2331	6381
1	2285	6382
1	2201	6383
1	2091	6384
1	1950	6385
1	1815	6386
1	1685	6387
1	1580	6388
1	1508	6389
1	1490	6390
1	1512	6391
1	1576	6392
1	1671	6393
1	1791	6394
1	1926	6395
1	2061	6396
1	2183	6397
1	2288	6398
1	2358	6399
1	2381	6400
1	2369	6401
1	2320	6402
1	2233	6403
1	2105	6404
1	1969	6405
1	1814	6406
1	1661	6407
1	1542	6408
1	1461	6409
1	1425	6410
1	1440	6411
1	1503	6412
1	1606	6413
1	1733	6414
1	1871	6415
1	2009	6416
1	2131	6417
1	2228	6418
1	2292	6419
1	2330	6420
1	2323	6421
1	2276	6422
1	2187	6423
1	2073	6424
1	1933	6425
1	1778	6426
1	1631	6427
1	1505	6428
1	1422	6429
1	1373	6430
1	1391	6431
1	1450	6432
1	1550	6433
1	1679	6434
1	1832	6435
1	1974	6436
1	2106	6437
1	2209	6438
1	2275	6439
1	2171	6460
1	2174	6461
1	2137	6462
1	2069	6463
1	1968	6464
1	1852	6465
1	1712	6466
1	1581	6467
1	1473	6468
1	1398	6469
1	1358	6470
1	1369	6471
1	1421	6472
1	1499	6473
1	1611	6474
1	1737	6475
1	1870	6476
1	1994	6477
1	2088	6478
1	2153	6479
1	2183	6480
1	2170	6481
1	2126	6482
1	2048	6483
1	1937	6484
1	1802	6485
1	1662	6486
1	1529	6487
1	1410	6488
1	1324	6489
1	1288	6490
1	1304	6491
1	1371	6492
1	1469	6493
1	1593	6494
1	1738	6495
1	1881	6496
1	2011	6497
1	2114	6498
1	2191	6499
1	2299	6440
1	2282	6441
1	2228	6442
1	2130	6443
1	2008	6444
1	1864	6445
1	1716	6446
1	1579	6447
1	1459	6448
1	1372	6449
1	1333	6450
1	1340	6451
1	1396	6452
1	1476	6453
1	1587	6454
1	1710	6455
1	1842	6456
1	1961	6457
1	2060	6458
1	2135	6459
1	2234	6500
1	2218	6501
1	2169	6502
1	2084	6503
1	1975	6504
1	1842	6505
1	1703	6506
1	1579	6507
1	1469	6508
1	1391	6509
1	1351	6510
1	1359	6511
1	1415	6512
1	1499	6513
1	1607	6514
1	1738	6515
1	1868	6516
1	1981	6517
1	2078	6518
1	2147	6519
1	2171	6520
1	2161	6521
1	2113	6522
1	2026	6523
1	1913	6524
1	1782	6525
1	1643	6526
1	1508	6527
1	1398	6528
1	1323	6529
1	1293	6530
1	1304	6531
1	1350	6532
1	1442	6533
1	1555	6534
1	1685	6535
1	1820	6536
1	1945	6537
1	2042	6538
1	2109	6539
1	2142	6540
1	2135	6541
1	2088	6542
1	2006	6543
1	1909	6544
1	1783	6545
1	1652	6546
1	1526	6547
1	1418	6548
1	1338	6549
1	1304	6550
1	1323	6551
1	1391	6552
1	1485	6553
1	1608	6554
1	1757	6555
1	1898	6556
1	2028	6557
1	2138	6558
1	2214	6559
1	2253	6560
1	2236	6561
1	2173	6562
1	2078	6563
1	1948	6564
1	1791	6565
1	1638	6566
1	1503	6567
1	1392	6568
1	1312	6569
1	1283	6570
1	1293	6571
1	1345	6572
1	1425	6573
1	1532	6574
1	1659	6575
1	1791	6576
1	1922	6577
1	2027	6578
1	2109	6579
1	2147	6580
1	2152	6581
1	2115	6582
1	2042	6583
1	1939	6584
1	1816	6585
1	1667	6586
1	1534	6587
1	1420	6588
1	1330	6589
1	1294	6590
1	1303	6591
1	1350	6592
1	1437	6593
1	1546	6594
1	1673	6595
1	1803	6596
1	1935	6597
1	2045	6598
1	2130	6599
1	2183	6600
1	2195	6601
1	2164	6602
1	2093	6603
1	1984	6604
1	1849	6605
1	1700	6606
1	1561	6607
1	1450	6608
1	1364	6609
1	1319	6610
1	1319	6611
1	1359	6612
1	1435	6613
1	1537	6614
1	1665	6615
1	1795	6616
1	1922	6617
1	2026	6618
1	2103	6619
1	2142	6620
1	2135	6621
1	2092	6622
1	2009	6623
1	1893	6624
1	1746	6625
1	1607	6626
1	1477	6627
1	1371	6628
1	1296	6629
1	1278	6630
1	1301	6631
1	1359	6632
1	1461	6633
1	1597	6634
1	1713	6635
1	1856	6636
1	1974	6637
1	2078	6638
1	2150	6639
1	2188	6640
1	2194	6641
1	2159	6642
1	2084	6643
1	1976	6644
1	1845	6645
1	1705	6646
1	1569	6647
1	1456	6648
1	1382	6649
1	1348	6650
1	1363	6651
1	1424	6652
1	1517	6653
1	1638	6654
1	1764	6655
1	1895	6656
1	2013	6657
1	2102	6658
1	2163	6659
1	2199	6660
1	2192	6661
1	2156	6662
1	2088	6663
1	1991	6664
1	1872	6665
1	1741	6666
1	1621	6667
1	1518	6668
1	1443	6669
1	1402	6670
1	1413	6671
1	1465	6672
1	1555	6673
1	1675	6674
1	1816	6675
1	1945	6676
1	2065	6677
1	2161	6678
1	2232	6679
1	2258	6680
1	2236	6681
1	2168	6682
1	2069	6683
1	1945	6684
1	1800	6685
1	1660	6686
1	1528	6687
1	1424	6688
1	1346	6689
1	1324	6690
1	1346	6691
1	1409	6692
1	1490	6693
1	1596	6694
1	1718	6695
1	1852	6696
1	1971	6697
1	2066	6698
1	2129	6699
1	2152	6700
1	2143	6701
1	2103	6702
1	2029	6703
1	1930	6704
1	1818	6705
1	1688	6706
1	1569	6707
1	1472	6708
1	1398	6709
1	1357	6710
1	1359	6711
1	1400	6712
1	1472	6713
1	1570	6714
1	1682	6715
1	1796	6716
1	1913	6717
1	2003	6718
1	2067	6719
1	2052	6740
1	2042	6741
1	1992	6742
1	1907	6743
1	1790	6744
1	1654	6745
1	1528	6746
1	1408	6747
1	1307	6748
1	1243	6749
1	1228	6750
1	1249	6751
1	1310	6752
1	1403	6753
1	1520	6754
1	1647	6755
1	1764	6756
1	1875	6757
1	1961	6758
1	2021	6759
1	2104	6720
1	2093	6721
1	2048	6722
1	1965	6723
1	1856	6724
1	1728	6725
1	1598	6726
1	1476	6727
1	1371	6728
1	1300	6729
1	1263	6730
1	1269	6731
1	1319	6732
1	1400	6733
1	1502	6734
1	1621	6735
1	1749	6736
1	1865	6737
1	1962	6738
1	2024	6739
1	2095	6780
1	2080	6781
1	2027	6782
1	1946	6783
1	1834	6784
1	1698	6785
1	1559	6786
1	1428	6787
1	1317	6788
1	1235	6789
1	1192	6790
1	1196	6791
1	1241	6792
1	1318	6793
1	1429	6794
1	1555	6795
1	1677	6796
1	1790	6797
1	1882	6798
1	1944	6799
1	2032	6760
1	2011	6761
1	1948	6762
1	1853	6763
1	1733	6764
1	1613	6765
1	1503	6766
1	1399	6767
1	1318	6768
1	1262	6769
1	1239	6770
1	1255	6771
1	1310	6772
1	1404	6773
1	1523	6774
1	1651	6775
1	1786	6776
1	1911	6777
1	2003	6778
1	2065	6779
1	1967	6800
1	1952	6801
1	1908	6802
1	1838	6803
1	1738	6804
1	1628	6805
1	1517	6806
1	1417	6807
1	1333	6808
1	1293	6809
1	1302	6810
1	1353	6811
1	1450	6812
1	1575	6813
1	1736	6814
1	1921	6815
1	2105	6816
1	2293	6817
1	2464	6818
1	2595	6819
1	2805	6840
1	2714	6841
1	2601	6842
1	2471	6843
1	2303	6844
1	2116	6845
1	1940	6846
1	1777	6847
1	1647	6848
1	1555	6849
1	1500	6850
1	1492	6851
1	1526	6852
1	1584	6853
1	1677	6854
1	1795	6855
1	1908	6856
1	2000	6857
1	2063	6858
1	2093	6859
1	2708	6820
1	2797	6821
1	2846	6822
1	2851	6823
1	2820	6824
1	2773	6825
1	2719	6826
1	2668	6827
1	2633	6828
1	2610	6829
1	2611	6830
1	2637	6831
1	2672	6832
1	2725	6833
1	2779	6834
1	2822	6835
1	2862	6836
1	2885	6837
1	2890	6838
1	2867	6839
1	2079	6860
1	2024	6861
1	1933	6862
1	1815	6863
1	1664	6864
1	1503	6865
1	1346	6866
1	1207	6867
1	1095	6868
1	1011	6869
1	978	6870
1	983	6871
1	1034	6872
1	1120	6873
1	1228	6874
1	1346	6875
1	1467	6876
1	1581	6877
1	1675	6878
1	1748	6879
1	1901	6900
1	1895	6901
1	1856	6902
1	1782	6903
1	1684	6904
1	1566	6905
1	1438	6906
1	1319	6907
1	1224	6908
1	1166	6909
1	1142	6910
1	1163	6911
1	1227	6912
1	1318	6913
1	1437	6914
1	1571	6915
1	1698	6916
1	1826	6917
1	1923	6918
1	2000	6919
1	1787	6880
1	1796	6881
1	1776	6882
1	1718	6883
1	1633	6884
1	1528	6885
1	1411	6886
1	1294	6887
1	1215	6888
1	1162	6889
1	1151	6890
1	1179	6891
1	1241	6892
1	1330	6893
1	1439	6894
1	1547	6895
1	1652	6896
1	1744	6897
1	1821	6898
1	1869	6899
1	2034	6920
1	2032	6921
1	1991	6922
1	1917	6923
1	1817	6924
1	1686	6925
1	1557	6926
1	1435	6927
1	1322	6928
1	1242	6929
1	1204	6930
1	1209	6931
1	1256	6932
1	1346	6933
1	1475	6934
1	1572	6935
1	1697	6936
1	1815	6937
1	1908	6938
1	1976	6939
1	2014	6940
1	2016	6941
1	1981	6942
1	1917	6943
1	1823	6944
1	1707	6945
1	1594	6946
1	1494	6947
1	1413	6948
1	1364	6949
1	1345	6950
1	1359	6951
1	1413	6952
1	1485	6953
1	1579	6954
1	1677	6955
1	1773	6956
1	1868	6957
1	1937	6958
1	1986	6959
1	2019	6960
1	2014	6961
1	1980	6962
1	1916	6963
1	1818	6964
1	1700	6965
1	1583	6966
1	1476	6967
1	1395	6968
1	1332	6969
1	1301	6970
1	1310	6971
1	1354	6972
1	1436	6973
1	1539	6974
1	1660	6975
1	1778	6976
1	1891	6977
1	1984	6978
1	2053	6979
1	2091	6980
1	2089	6981
1	2052	6982
1	1973	6983
1	1862	6984
1	1726	6985
1	1594	6986
1	1469	6987
1	1363	6988
1	1292	6989
1	1256	6990
1	1267	6991
1	1323	6992
1	1423	6993
1	1546	6994
1	1686	6995
1	1827	6996
1	1952	6997
1	2060	6998
1	2143	6999
1	2175	7000
1	2167	7001
1	2113	7002
1	2019	7003
1	1896	7004
1	1766	7005
1	1639	7006
1	1525	7007
1	1427	7008
1	1355	7009
1	1321	7010
1	1332	7011
1	1393	7012
1	1485	7013
1	1612	7014
1	1753	7015
1	1895	7016
1	2025	7017
1	2124	7018
1	2184	7019
1	2214	7020
1	2196	7021
1	2137	7022
1	2049	7023
1	1924	7024
1	1786	7025
1	1648	7026
1	1529	7027
1	1436	7028
1	1372	7029
1	1345	7030
1	1368	7031
1	1429	7032
1	1517	7033
1	1629	7034
1	1755	7035
1	1880	7036
1	1996	7037
1	2101	7038
1	2165	7039
1	2197	7040
1	2188	7041
1	2147	7042
1	2076	7043
1	1974	7044
1	1849	7045
1	1721	7046
1	1603	7047
1	1503	7048
1	1437	7049
1	1413	7050
1	1425	7051
1	1480	7052
1	1568	7053
1	1680	7054
1	1796	7055
1	1911	7056
1	2013	7057
1	2101	7058
1	2161	7059
1	2290	7100
1	2274	7101
1	2217	7102
1	2136	7103
1	2032	7104
1	1899	7105
1	1762	7106
1	1633	7107
1	1525	7108
1	1445	7109
1	1417	7110
1	1422	7111
1	1462	7112
1	1538	7113
1	1643	7114
1	1764	7115
1	1895	7116
1	2011	7117
1	2105	7118
1	2173	7119
1	2231	7080
1	2222	7081
1	2185	7082
1	2116	7083
1	2018	7084
1	1897	7085
1	1773	7086
1	1662	7087
1	1581	7088
1	1529	7089
1	1517	7090
1	1544	7091
1	1609	7092
1	1700	7093
1	1817	7094
1	1944	7095
1	2052	7096
1	2143	7097
1	2219	7098
1	2274	7099
1	2185	7060
1	2183	7061
1	2152	7062
1	2092	7063
1	1998	7064
1	1890	7065
1	1764	7066
1	1655	7067
1	1557	7068
1	1487	7069
1	1449	7070
1	1453	7071
1	1498	7072
1	1571	7073
1	1670	7074
1	1780	7075
1	1908	7076
1	2026	7077
1	2118	7078
1	2185	7079
1	2183	7140
1	2179	7141
1	2139	7142
1	2063	7143
1	1956	7144
1	1818	7145
1	1673	7146
1	1540	7147
1	1436	7148
1	1364	7149
1	1334	7150
1	1356	7151
1	1429	7152
1	1530	7153
1	1659	7154
1	1801	7155
1	1935	7156
1	2053	7157
1	2147	7158
1	2210	7159
1	2197	7120
1	2187	7121
1	2146	7122
1	2065	7123
1	1955	7124
1	1837	7125
1	1701	7126
1	1582	7127
1	1487	7128
1	1422	7129
1	1398	7130
1	1424	7131
1	1476	7132
1	1556	7133
1	1660	7134
1	1773	7135
1	1896	7136
1	2002	7137
1	2084	7138
1	2149	7139
1	2238	7160
1	2231	7161
1	2184	7162
1	2107	7163
1	2000	7164
1	1862	7165
1	1720	7166
1	1596	7167
1	1500	7168
1	1437	7169
1	1417	7170
1	1438	7171
1	1500	7172
1	1593	7173
1	1710	7174
1	1845	7175
1	1975	7176
1	2086	7177
1	2170	7178
1	2222	7179
1	2245	7200
1	2244	7201
1	2204	7202
1	2131	7203
1	2032	7204
1	1919	7205
1	1791	7206
1	1674	7207
1	1581	7208
1	1523	7209
1	1494	7210
1	1512	7211
1	1569	7212
1	1649	7213
1	1760	7214
1	1890	7215
1	2011	7216
1	2127	7217
1	2220	7218
1	2282	7219
1	2241	7180
1	2221	7181
1	2178	7182
1	2103	7183
1	1998	7184
1	1875	7185
1	1738	7186
1	1608	7187
1	1508	7188
1	1441	7189
1	1413	7190
1	1422	7191
1	1469	7192
1	1555	7193
1	1674	7194
1	1791	7195
1	1918	7196
1	2035	7197
1	2131	7198
1	2198	7199
1	2309	7220
1	2293	7221
1	2245	7222
1	2158	7223
1	2052	7224
1	1917	7225
1	1783	7226
1	1656	7227
1	1553	7228
1	1476	7229
1	1445	7230
1	1449	7231
1	1502	7232
1	1595	7233
1	1706	7234
1	1850	7235
1	1980	7236
1	2089	7237
1	2185	7238
1	2260	7239
1	2284	7240
1	2268	7241
1	2210	7242
1	2131	7243
1	2030	7244
1	1908	7245
1	1789	7246
1	1673	7247
1	1580	7248
1	1519	7249
1	1488	7250
1	1490	7251
1	1530	7252
1	1607	7253
1	1710	7254
1	1830	7255
1	1948	7256
1	2055	7257
1	2131	7258
1	2188	7259
1	2231	7260
1	2215	7261
1	2178	7262
1	2108	7263
1	2021	7264
1	1916	7265
1	1808	7266
1	1701	7267
1	1618	7268
1	1558	7269
1	1533	7270
1	1553	7271
1	1609	7272
1	1698	7273
1	1815	7274
1	1936	7275
1	2039	7276
1	2129	7277
1	2188	7278
1	2231	7279
1	2236	7280
1	2205	7281
1	2152	7282
1	2079	7283
1	1980	7284
1	1871	7285
1	1761	7286
1	1657	7287
1	1575	7288
1	1521	7289
1	1517	7290
1	1543	7291
1	1607	7292
1	1698	7293
1	1818	7294
1	1950	7295
1	2075	7296
1	2183	7297
1	2267	7298
1	2323	7299
1	2336	7300
1	2323	7301
1	2273	7302
1	2188	7303
1	2079	7304
1	1964	7305
1	1840	7306
1	1715	7307
1	1624	7308
1	1566	7309
1	1546	7310
1	1564	7311
1	1618	7312
1	1702	7313
1	1817	7314
1	1927	7315
1	2039	7316
1	2131	7317
1	2195	7318
1	2237	7319
1	2262	7320
1	2252	7321
1	2210	7322
1	2145	7323
1	2052	7324
1	1940	7325
1	1822	7326
1	1709	7327
1	1611	7328
1	1549	7329
1	1521	7330
1	1548	7331
1	1620	7332
1	1715	7333
1	1839	7334
1	1966	7335
1	2089	7336
1	2189	7337
1	2288	7338
1	2346	7339
1	2371	7340
1	2367	7341
1	2325	7342
1	2248	7343
1	2136	7344
1	2015	7345
1	1887	7346
1	1759	7347
1	1654	7348
1	1574	7349
1	1530	7350
1	1529	7351
1	1560	7352
1	1634	7353
1	1737	7354
1	1868	7355
1	2006	7356
1	2138	7357
1	2255	7358
1	2330	7359
1	2356	7360
1	2355	7361
1	2323	7362
1	2263	7363
1	2172	7364
1	2077	7365
1	1963	7366
1	1854	7367
1	1753	7368
1	1683	7369
1	1639	7370
1	1637	7371
1	1674	7372
1	1746	7373
1	1850	7374
1	1955	7375
1	2066	7376
1	2176	7377
1	2267	7378
1	2329	7379
1	2363	7380
1	2353	7381
1	2310	7382
1	2236	7383
1	2138	7384
1	2024	7385
1	1900	7386
1	1782	7387
1	1687	7388
1	1615	7389
1	1591	7390
1	1593	7391
1	1633	7392
1	1692	7393
1	1780	7394
1	1891	7395
1	1998	7396
1	2100	7397
1	2188	7398
1	2268	7399
1	2316	7400
1	2336	7401
1	2314	7402
1	2256	7403
1	2158	7404
1	2035	7405
1	1895	7406
1	1744	7407
1	1618	7408
1	1517	7409
1	1462	7410
1	1450	7411
1	1485	7412
1	1555	7413
1	1660	7414
1	1787	7415
1	1922	7416
1	2043	7417
1	2143	7418
1	2214	7419
1	2244	7420
1	2236	7421
1	2183	7422
1	2106	7423
1	2001	7424
1	1892	7425
1	1759	7426
1	1633	7427
1	1524	7428
1	1445	7429
1	1404	7430
1	1408	7431
1	1449	7432
1	1537	7433
1	1654	7434
1	1791	7435
1	1930	7436
1	2052	7437
1	2136	7438
1	2197	7439
1	2233	7440
1	2222	7441
1	2185	7442
1	2119	7443
1	2031	7444
1	1919	7445
1	1791	7446
1	1672	7447
1	1569	7448
1	1493	7449
1	1452	7450
1	1462	7451
1	1518	7452
1	1603	7453
1	1708	7454
1	1834	7455
1	1949	7456
1	2057	7457
1	2145	7458
1	2198	7459
1	2220	7460
1	2202	7461
1	2149	7462
1	2066	7463
1	1959	7464
1	1832	7465
1	1699	7466
1	1575	7467
1	1477	7468
1	1417	7469
1	1399	7470
1	1424	7471
1	1490	7472
1	1592	7473
1	1716	7474
1	1850	7475
1	1970	7476
1	2074	7477
1	2152	7478
1	2192	7479
1	2195	7480
1	2170	7481
1	2110	7482
1	2027	7483
1	1926	7484
1	1821	7485
1	1698	7486
1	1586	7487
1	1490	7488
1	1412	7489
1	1382	7490
1	1384	7491
1	1427	7492
1	1500	7493
1	1604	7494
1	1727	7495
1	1854	7496
1	1975	7497
1	2080	7498
1	2180	7499
1	2273	7500
1	2333	7501
1	2368	7502
1	2389	7503
1	2387	7504
1	2368	7505
1	2343	7506
1	2324	7507
1	2314	7508
1	2327	7509
1	2365	7510
1	2448	7511
1	2562	7512
1	2704	7513
1	2869	7514
1	3049	7515
1	3130	7516
1	3130	7517
1	3130	7518
1	3130	7519
1	3130	7520
1	3130	7521
1	3130	7522
1	3130	7523
1	3130	7524
1	3027	7525
1	2855	7526
1	2687	7527
1	2539	7528
1	2413	7529
1	2313	7530
1	2233	7531
1	2201	7532
1	2212	7533
1	2243	7534
1	2318	7535
1	2389	7536
1	2472	7537
1	2533	7538
1	2573	7539
1	2587	7540
1	2566	7541
1	2512	7542
1	2415	7543
1	2284	7544
1	2130	7545
1	1974	7546
1	1811	7547
1	1656	7548
1	1537	7549
1	1448	7550
1	1403	7551
1	1410	7552
1	1450	7553
1	1527	7554
1	1610	7555
1	1710	7556
1	1809	7557
1	1888	7558
1	1941	7559
1	1970	7560
1	1955	7561
1	1907	7562
1	1827	7563
1	1713	7564
1	1594	7565
1	1476	7566
1	1364	7567
1	1274	7568
1	1215	7569
1	1190	7570
1	1224	7571
1	1299	7572
1	1412	7573
1	1543	7574
1	1687	7575
1	1827	7576
1	1949	7577
1	2050	7578
1	2115	7579
1	2147	7580
1	2141	7581
1	2101	7582
1	2021	7583
1	1903	7584
1	1754	7585
1	1602	7586
1	1461	7587
1	1336	7588
1	1243	7589
1	1201	7590
1	1200	7591
1	1245	7592
1	1328	7593
1	1437	7594
1	1566	7595
1	1702	7596
1	1838	7597
1	1947	7598
1	2027	7599
1	2068	7600
1	2079	7601
1	2052	7602
1	1991	7603
1	1904	7604
1	1803	7605
1	1695	7606
1	1589	7607
1	1487	7608
1	1409	7609
1	1359	7610
1	1358	7611
1	1397	7612
1	1461	7613
1	1556	7614
1	1663	7615
1	1780	7616
1	1897	7617
1	1991	7618
1	2052	7619
1	2075	7640
1	2079	7641
1	2049	7642
1	1982	7643
1	1890	7644
1	1769	7645
1	1659	7646
1	1542	7647
1	1437	7648
1	1356	7649
1	1321	7650
1	1330	7651
1	1373	7652
1	1452	7653
1	1553	7654
1	1660	7655
1	1764	7656
1	1870	7657
1	1958	7658
1	2027	7659
1	2083	7620
1	2078	7621
1	2044	7622
1	1988	7623
1	1901	7624
1	1792	7625
1	1678	7626
1	1557	7627
1	1450	7628
1	1364	7629
1	1304	7630
1	1291	7631
1	1319	7632
1	1377	7633
1	1481	7634
1	1598	7635
1	1729	7636
1	1845	7637
1	1952	7638
1	2026	7639
1	2065	7660
1	2071	7661
1	2051	7662
1	1995	7663
1	1913	7664
1	1817	7665
1	1703	7666
1	1593	7667
1	1493	7668
1	1415	7669
1	1364	7670
1	1356	7671
1	1397	7672
1	1464	7673
1	1553	7674
1	1651	7675
1	1752	7676
1	1860	7677
1	1953	7678
1	2028	7679
1	2074	7680
1	2079	7681
1	2054	7682
1	2004	7683
1	1923	7684
1	1827	7685
1	1718	7686
1	1609	7687
1	1512	7688
1	1440	7689
1	1398	7690
1	1396	7691
1	1430	7692
1	1500	7693
1	1592	7694
1	1706	7695
1	1821	7696
1	1927	7697
1	2014	7698
1	2076	7699
1	2104	7700
1	2102	7701
1	2066	7702
1	2003	7703
1	1906	7704
1	1775	7705
1	1647	7706
1	1529	7707
1	1429	7708
1	1356	7709
1	1332	7710
1	1340	7711
1	1394	7712
1	1475	7713
1	1580	7714
1	1697	7715
1	1818	7716
1	1922	7717
1	2009	7718
1	2071	7719
1	2096	7720
1	2091	7721
1	2053	7722
1	1995	7723
1	1908	7724
1	1817	7725
1	1706	7726
1	1599	7727
1	1503	7728
1	1436	7729
1	1394	7730
1	1394	7731
1	1424	7732
1	1484	7733
1	1568	7734
1	1674	7735
1	1787	7736
1	1904	7737
1	1985	7738
1	2040	7739
1	2066	7740
1	2060	7741
1	2019	7742
1	1947	7743
1	1866	7744
1	1764	7745
1	1664	7746
1	1571	7747
1	1498	7748
1	1448	7749
1	1422	7750
1	1428	7751
1	1475	7752
1	1544	7753
1	1643	7754
1	1764	7755
1	1881	7756
1	1989	7757
1	2076	7758
1	2137	7759
1	2170	7760
1	2171	7761
1	2142	7762
1	2087	7763
1	2009	7764
1	1907	7765
1	1790	7766
1	1667	7767
1	1555	7768
1	1464	7769
1	1413	7770
1	1397	7771
1	1424	7772
1	1489	7773
1	1581	7774
1	1695	7775
1	1818	7776
1	1926	7777
1	2013	7778
1	2079	7779
1	2115	7780
1	2129	7781
1	2105	7782
1	2052	7783
1	1962	7784
1	1857	7785
1	1734	7786
1	1611	7787
1	1504	7788
1	1421	7789
1	1368	7790
1	1364	7791
1	1406	7792
1	1471	7793
1	1559	7794
1	1667	7795
1	1783	7796
1	1906	7797
1	2003	7798
1	2079	7799
1	2127	7800
1	2131	7801
1	2100	7802
1	2034	7803
1	1934	7804
1	1813	7805
1	1679	7806
1	1559	7807
1	1466	7808
1	1399	7809
1	1350	7810
1	1348	7811
1	1384	7812
1	1450	7813
1	1539	7814
1	1650	7815
1	1751	7816
1	1848	7817
1	1922	7818
1	1973	7819
1	1995	7820
1	1986	7821
1	1948	7822
1	1869	7823
1	1764	7824
1	1643	7825
1	1527	7826
1	1422	7827
1	1324	7828
1	1251	7829
1	1215	7830
1	1214	7831
1	1245	7832
1	1337	7833
1	1445	7834
1	1581	7835
1	1698	7836
1	1817	7837
1	1906	7838
1	1967	7839
1	2000	7840
1	1993	7841
1	1958	7842
1	1895	7843
1	1801	7844
1	1687	7845
1	1569	7846
1	1451	7847
1	1346	7848
1	1276	7849
1	1236	7850
1	1229	7851
1	1265	7852
1	1333	7853
1	1440	7854
1	1551	7855
1	1669	7856
1	1782	7857
1	1879	7858
1	1950	7859
1	1998	7860
1	1992	7861
1	1952	7862
1	1887	7863
1	1796	7864
1	1692	7865
1	1581	7866
1	1464	7867
1	1359	7868
1	1285	7869
1	1243	7870
1	1242	7871
1	1284	7872
1	1356	7873
1	1458	7874
1	1579	7875
1	1697	7876
1	1817	7877
1	1917	7878
1	1993	7879
1	2026	7880
1	2016	7881
1	1970	7882
1	1895	7883
1	1788	7884
1	1665	7885
1	1554	7886
1	1446	7887
1	1346	7888
1	1278	7889
1	1242	7890
1	1245	7891
1	1287	7892
1	1360	7893
1	1455	7894
1	1557	7895
1	1660	7896
1	1742	7897
1	1818	7898
1	1869	7899
1	1893	7900
1	1883	7901
1	1844	7902
1	1770	7903
1	1677	7904
1	1574	7905
1	1465	7906
1	1360	7907
1	1268	7908
1	1200	7909
1	1163	7910
1	1170	7911
1	1215	7912
1	1293	7913
1	1402	7914
1	1526	7915
1	1654	7916
1	1777	7917
1	1883	7918
1	1959	7919
1	2001	7920
1	2000	7921
1	1965	7922
1	1895	7923
1	1787	7924
1	1660	7925
1	1529	7926
1	1398	7927
1	1293	7928
1	1223	7929
1	1178	7930
1	1175	7931
1	1214	7932
1	1282	7933
1	1384	7934
1	1503	7935
1	1627	7936
1	1737	7937
1	1837	7938
1	1901	7939
1	1935	7940
1	1939	7941
1	1913	7942
1	1860	7943
1	1773	7944
1	1667	7945
1	1560	7946
1	1458	7947
1	1367	7948
1	1299	7949
1	1266	7950
1	1260	7951
1	1278	7952
1	1320	7953
1	1384	7954
1	1465	7955
1	1547	7956
1	1629	7957
1	1698	7958
1	1751	7959
1	1777	7960
1	1787	7961
1	1769	7962
1	1730	7963
1	1661	7964
1	1581	7965
1	1488	7966
1	1392	7967
1	1306	7968
1	1242	7969
1	1212	7970
1	1222	7971
1	1272	7972
1	1350	7973
1	1461	7974
1	1574	7975
1	1689	7976
1	1796	7977
1	1888	7978
1	1939	7979
1	1956	7980
1	1927	7981
1	1867	7982
1	1769	7983
1	1652	7984
1	1521	7985
1	1384	7986
1	1260	7987
1	1156	7988
1	1082	7989
1	1044	7990
1	1058	7991
1	1114	7992
1	1199	7993
1	1312	7994
1	1447	7995
1	1574	7996
1	1686	7997
1	1780	7998
1	1856	7999
1	1905	8000
1	1929	8000
1	1917	8002
1	1869	8003
1	1791	8004
1	1688	8005
1	1587	8006
1	1485	8007
1	1383	8008
1	1304	8009
1	1258	8010
1	1243	8011
1	1273	8012
1	1332	8013
1	1422	8013
1	1521	8015
1	1634	8016
1	1738	8016
1	1830	8018
1	1895	8019
1	1880	8040
1	1893	8041
1	1869	8042
1	1817	8043
1	1744	8044
1	1658	8045
1	1566	8045
1	1476	8047
1	1400	8048
1	1343	8048
1	1315	8050
1	1325	8051
1	1377	8052
1	1461	8053
1	1564	8054
1	1687	8055
1	1799	8056
1	1896	8057
1	1970	8058
1	2013	8059
1	1929	8020
1	1936	8021
1	1914	8022
1	1867	8023
1	1783	8024
1	1692	8025
1	1581	8026
1	1474	8027
1	1377	8028
1	1312	8029
1	1274	8029
1	1267	8031
1	1289	8032
1	1343	8032
1	1422	8034
1	1514	8035
1	1607	8036
1	1696	8037
1	1769	8038
1	1840	8039
1	2026	8060
1	2009	8061
1	1965	8061
1	1891	8063
1	1779	8064
1	1650	8064
1	1518	8066
1	1384	8067
1	1268	8068
1	1179	8069
1	1136	8070
1	1131	8071
1	1166	8072
1	1242	8073
1	1346	8074
1	1465	8074
1	1587	8076
1	1705	8077
1	1813	8077
1	1891	8079
1	1922	8080
1	1930	8080
1	1899	8082
1	1843	8083
1	1749	8084
1	1647	8085
1	1530	8086
1	1418	8087
1	1317	8088
1	1243	8089
1	1211	8090
1	1215	8090
1	1265	8092
1	1338	8093
1	1445	8093
1	1553	8095
1	1663	8096
1	1770	8096
1	1856	8098
1	1906	8099
1	1930	8100
1	1913	8101
1	1867	8102
1	1783	8103
1	1682	8104
1	1556	8105
1	1425	8106
1	1293	8106
1	1181	8108
1	1101	8109
1	1058	8109
1	1058	8111
1	1108	8112
1	1186	8113
1	1292	8114
1	1424	8115
1	1548	8116
1	1665	8117
1	1764	8118
1	1844	8119
1	1895	8120
1	1909	8121
1	1891	8122
1	1838	8122
1	1739	8124
1	1615	8125
1	1485	8125
1	1350	8127
1	1232	8128
1	1138	8129
1	1083	8130
1	1070	8131
1	1096	8132
1	1164	8133
1	1283	8134
1	1359	8135
1	1473	8136
1	1574	8137
1	1660	8138
1	1717	8138
1	1751	8140
1	1754	8141
1	1731	8141
1	1681	8143
1	1602	8144
1	1491	8145
1	1366	8146
1	1238	8147
1	1124	8148
1	1033	8149
1	977	8150
1	965	8151
1	1016	8152
1	1102	8153
1	1219	8154
1	1346	8154
1	1481	8156
1	1611	8157
1	1727	8157
1	1817	8159
1	1880	8160
1	1896	8161
1	1873	8162
1	1816	8163
1	1724	8164
1	1616	8165
1	1500	8166
1	1373	8167
1	1258	8168
1	1161	8169
1	1084	8170
1	1053	8170
1	1060	8172
1	1109	8173
1	1188	8173
1	1292	8175
1	1398	8176
1	1494	8177
1	1572	8178
1	1620	8179
1	1642	8180
1	1634	8181
1	1600	8182
1	1544	8183
1	1469	8184
1	1373	8185
1	1291	8186
1	1215	8186
1	1163	8188
1	1147	8189
1	1179	8189
1	1254	8191
1	1372	8192
1	1533	8193
1	1718	8194
1	1922	8195
1	2120	8196
1	2317	8197
1	2496	8198
1	2626	8199
1	2722	8200
1	2794	8201
1	2835	8202
1	2845	8203
1	2832	8204
1	2791	8205
1	2734	8206
1	2664	8207
1	2597	8208
1	2545	8209
1	2516	8210
1	2515	8211
1	2537	8212
1	2580	8213
1	2629	8214
1	2675	8215
1	2720	8216
1	2761	8217
1	2774	8218
1	2766	8219
1	2736	8220
1	2664	8221
1	2562	8222
1	2436	8223
1	2278	8224
1	2106	8225
1	1947	8226
1	1792	8227
1	1668	8228
1	1570	8229
1	1499	8230
1	1479	8231
1	1500	8232
1	1550	8233
1	1620	8234
1	1715	8235
1	1801	8236
1	1872	8237
1	1917	8238
1	1922	8239
1	1898	8240
1	1840	8241
1	1744	8242
1	1626	8243
1	1485	8244
1	1327	8245
1	1173	8246
1	1031	8247
1	911	8248
1	826	8249
1	775	8250
1	767	8251
1	807	8252
1	885	8253
1	995	8254
1	1122	8255
1	1258	8256
1	1398	8257
1	1518	8258
1	1610	8259
1	1660	8260
1	1679	8261
1	1664	8262
1	1616	8263
1	1530	8264
1	1423	8265
1	1299	8266
1	1188	8267
1	1089	8268
1	1018	8269
1	979	8270
1	979	8271
1	1016	8272
1	1084	8273
1	1178	8274
1	1281	8275
1	1395	8276
1	1503	8277
1	1598	8278
1	1674	8279
1	1726	8280
1	1741	8281
1	1719	8282
1	1661	8283
1	1572	8284
1	1454	8285
1	1328	8286
1	1199	8287
1	1084	8288
1	999	8289
1	942	8290
1	927	8291
1	953	8292
1	1019	8293
1	1110	8294
1	1228	8295
1	1355	8296
1	1480	8297
1	1580	8298
1	1652	8299
1	1691	8300
1	1698	8301
1	1672	8302
1	1620	8303
1	1535	8304
1	1424	8305
1	1302	8306
1	1186	8307
1	1084	8308
1	1008	8309
1	977	8310
1	981	8311
1	1032	8312
1	1110	8313
1	1204	8314
1	1319	8315
1	1438	8316
1	1554	8317
1	1651	8318
1	1724	8319
1	1755	8320
1	1755	8321
1	1721	8322
1	1657	8323
1	1568	8324
1	1468	8325
1	1348	8326
1	1237	8327
1	1136	8328
1	1058	8329
1	1006	8330
1	981	8331
1	994	8332
1	1034	8333
1	1103	8334
1	1188	8335
1	1283	8336
1	1372	8337
1	1454	8338
1	1524	8339
1	1572	8340
1	1590	8341
1	1581	8342
1	1544	8343
1	1489	8344
1	1418	8345
1	1333	8346
1	1256	8347
1	1185	8348
1	1136	8349
1	1110	8350
1	1122	8351
1	1164	8352
1	1238	8353
1	1333	8354
1	1458	8355
1	1570	8356
1	1670	8357
1	1755	8358
1	1816	8359
1	1836	8360
1	1823	8361
1	1779	8362
1	1706	8363
1	1607	8364
1	1482	8365
1	1346	8366
1	1214	8367
1	1097	8368
1	1013	8369
1	977	8370
1	977	8371
1	1017	8372
1	1084	8373
1	1175	8374
1	1287	8375
1	1400	8376
1	1507	8377
1	1597	8378
1	1665	8379
1	1699	8380
1	1698	8381
1	1671	8382
1	1620	8383
1	1543	8384
1	1454	8385
1	1350	8386
1	1260	8387
1	1177	8388
1	1117	8389
1	1084	8390
1	1088	8391
1	1131	8392
1	1198	8393
1	1286	8394
1	1383	8395
1	1494	8396
1	1598	8397
1	1690	8398
1	1754	8399
1	1791	8400
1	1784	8401
1	1747	8402
1	1678	8403
1	1582	8404
1	1471	8405
1	1346	8406
1	1239	8407
1	1143	8408
1	1074	8409
1	1031	8410
1	1031	8411
1	1071	8412
1	1139	8413
1	1240	8414
1	1363	8415
1	1487	8416
1	1602	8417
1	1696	8418
1	1766	8419
1	1816	8420
1	1830	8421
1	1803	8422
1	1750	8423
1	1662	8424
1	1550	8425
1	1430	8426
1	1312	8427
1	1207	8428
1	1129	8429
1	1084	8430
1	1081	8431
1	1111	8432
1	1181	8433
1	1259	8434
1	1368	8435
1	1468	8436
1	1579	8437
1	1665	8438
1	1726	8439
1	1760	8440
1	1762	8441
1	1736	8442
1	1676	8443
1	1593	8444
1	1492	8445
1	1391	8446
1	1292	8447
1	1215	8448
1	1173	8449
1	1161	8450
1	1172	8451
1	1224	8452
1	1301	8453
1	1407	8454
1	1512	8455
1	1620	8456
1	1718	8457
1	1795	8458
1	1854	8459
1	1885	8460
1	1883	8461
1	1850	8462
1	1790	8463
1	1706	8464
1	1597	8465
1	1477	8466
1	1361	8467
1	1268	8468
1	1199	8469
1	1159	8470
1	1159	8471
1	1188	8472
1	1244	8473
1	1331	8474
1	1440	8475
1	1553	8476
1	1659	8477
1	1751	8478
1	1831	8479
1	1870	8480
1	1872	8481
1	1843	8482
1	1769	8483
1	1671	8484
1	1542	8485
1	1410	8486
1	1280	8487
1	1169	8488
1	1089	8489
1	1056	8490
1	1058	8491
1	1109	8492
1	1190	8493
1	1302	8494
1	1433	8495
1	1559	8496
1	1674	8497
1	1764	8498
1	1828	8499
1	1845	8500
1	1834	8501
1	1786	8502
1	1710	8503
1	1607	8504
1	1485	8505
1	1346	8506
1	1215	8507
1	1104	8508
1	1023	8509
1	979	8510
1	975	8511
1	1011	8512
1	1084	8513
1	1191	8514
1	1307	8515
1	1435	8516
1	1546	8517
1	1634	8518
1	1690	8519
1	1764	8540
1	1753	8541
1	1712	8542
1	1642	8543
1	1544	8544
1	1424	8545
1	1298	8546
1	1184	8547
1	1084	8548
1	1011	8549
1	963	8550
1	973	8551
1	1013	8552
1	1086	8553
1	1188	8554
1	1308	8555
1	1437	8556
1	1553	8557
1	1641	8558
1	1710	8559
1	1717	8520
1	1712	8521
1	1678	8522
1	1616	8523
1	1529	8524
1	1424	8525
1	1311	8526
1	1203	8527
1	1110	8528
1	1050	8529
1	1022	8530
1	1042	8531
1	1098	8532
1	1181	8533
1	1288	8534
1	1403	8535
1	1510	8536
1	1605	8537
1	1683	8538
1	1738	8539
1	1825	8580
1	1818	8581
1	1765	8582
1	1688	8583
1	1582	8584
1	1454	8585
1	1314	8586
1	1181	8587
1	1069	8588
1	987	8589
1	935	8590
1	934	8591
1	980	8592
1	1060	8593
1	1166	8594
1	1292	8595
1	1409	8596
1	1515	8597
1	1607	8598
1	1682	8599
1	1744	8560
1	1746	8561
1	1713	8562
1	1655	8563
1	1564	8564
1	1453	8565
1	1328	8566
1	1204	8567
1	1094	8568
1	1014	8569
1	964	8570
1	958	8571
1	1005	8572
1	1087	8573
1	1199	8574
1	1319	8575
1	1454	8576
1	1582	8577
1	1694	8578
1	1778	8579
1	1726	8600
1	1738	8601
1	1721	8602
1	1664	8603
1	1572	8604
1	1452	8605
1	1322	8606
1	1199	8607
1	1087	8608
1	1003	8609
1	948	8610
1	932	8611
1	970	8612
1	1042	8613
1	1145	8614
1	1275	8615
1	1413	8616
1	1539	8617
1	1639	8618
1	1712	8619
1	1738	8620
1	1731	8621
1	1694	8622
1	1631	8623
1	1542	8624
1	1445	8625
1	1327	8626
1	1211	8627
1	1110	8628
1	1031	8629
1	986	8630
1	975	8631
1	996	8632
1	1050	8633
1	1141	8634
1	1263	8635
1	1380	8636
1	1490	8637
1	1580	8638
1	1639	8639
1	1671	8640
1	1664	8641
1	1631	8642
1	1559	8643
1	1469	8644
1	1348	8645
1	1227	8646
1	1114	8647
1	1027	8648
1	973	8649
1	947	8650
1	955	8651
1	1005	8652
1	1085	8653
1	1197	8654
1	1331	8655
1	1455	8656
1	1581	8657
1	1688	8658
1	1767	8659
1	1817	8660
1	1818	8661
1	1782	8662
1	1724	8663
1	1637	8664
1	1527	8665
1	1401	8666
1	1273	8667
1	1160	8668
1	1071	8669
1	1027	8670
1	1019	8671
1	1049	8672
1	1110	8673
1	1195	8674
1	1299	8675
1	1415	8676
1	1518	8677
1	1607	8678
1	1674	8679
1	1706	8680
1	1710	8681
1	1682	8682
1	1620	8683
1	1529	8684
1	1425	8685
1	1301	8686
1	1183	8687
1	1082	8688
1	1008	8689
1	969	8690
1	975	8691
1	1023	8692
1	1107	8693
1	1211	8694
1	1327	8695
1	1450	8696
1	1563	8697
1	1660	8698
1	1733	8699
1	1769	8700
1	1769	8701
1	1746	8702
1	1693	8703
1	1616	8704
1	1513	8705
1	1394	8706
1	1267	8707
1	1159	8708
1	1075	8709
1	1024	8710
1	1017	8711
1	1050	8712
1	1112	8713
1	1203	8714
1	1320	8715
1	1453	8716
1	1584	8717
1	1705	8718
1	1791	8719
1	1886	8740
1	1890	8741
1	1857	8742
1	1788	8743
1	1695	8744
1	1573	8745
1	1449	8746
1	1323	8747
1	1214	8748
1	1134	8749
1	1084	8750
1	1075	8751
1	1110	8752
1	1180	8753
1	1283	8754
1	1408	8755
1	1529	8756
1	1649	8757
1	1749	8758
1	1823	8759
1	1844	8720
1	1861	8721
1	1841	8722
1	1775	8723
1	1680	8724
1	1551	8725
1	1418	8726
1	1286	8727
1	1177	8728
1	1101	8729
1	1066	8730
1	1077	8731
1	1119	8732
1	1212	8733
1	1311	8734
1	1438	8735
1	1566	8736
1	1682	8737
1	1775	8738
1	1844	8739
1	1868	8760
1	1861	8761
1	1818	8762
1	1743	8763
1	1645	8764
1	1529	8765
1	1402	8766
1	1280	8767
1	1179	8768
1	1099	8769
1	1038	8770
1	1018	8771
1	1042	8772
1	1103	8773
1	1192	8774
1	1295	8775
1	1409	8776
1	1521	8777
1	1626	8778
1	1712	8779
1	1769	8780
1	1802	8781
1	1796	8782
1	1750	8783
1	1672	8784
1	1568	8785
1	1450	8786
1	1327	8787
1	1216	8788
1	1128	8789
1	1071	8790
1	1057	8791
1	1087	8792
1	1157	8793
1	1257	8794
1	1384	8795
1	1517	8796
1	1634	8797
1	1729	8798
1	1798	8799
1	1826	8800
1	1815	8801
1	1764	8802
1	1692	8803
1	1594	8804
1	1485	8805
1	1358	8806
1	1237	8807
1	1125	8808
1	1042	8809
1	990	8810
1	981	8811
1	1018	8812
1	1087	8813
1	1188	8814
1	1304	8815
1	1429	8816
1	1547	8817
1	1643	8818
1	1711	8819
1	1751	8820
1	1751	8821
1	1712	8822
1	1639	8823
1	1537	8824
1	1413	8825
1	1269	8826
1	1136	8827
1	1019	8828
1	934	8829
1	890	8830
1	891	8831
1	934	8832
1	1020	8833
1	1134	8834
1	1267	8835
1	1413	8836
1	1544	8837
1	1656	8838
1	1733	8839
1	1775	8840
1	1787	8841
1	1751	8842
1	1681	8843
1	1574	8844
1	1445	8845
1	1314	8846
1	1189	8847
1	1082	8848
1	1005	8849
1	962	8850
1	956	8851
1	995	8852
1	1067	8853
1	1173	8854
1	1302	8855
1	1445	8856
1	1587	8857
1	1709	8858
1	1793	8859
1	1834	8860
1	1825	8861
1	1769	8862
1	1683	8863
1	1561	8864
1	1425	8865
1	1267	8866
1	1112	8867
1	972	8868
1	861	8869
1	808	8870
1	809	8871
1	860	8872
1	948	8873
1	1071	8874
1	1207	8875
1	1351	8876
1	1501	8877
1	1629	8878
1	1732	8879
1	1809	8880
1	1854	8881
1	1869	8882
1	1858	8883
1	1831	8884
1	1783	8885
1	1725	8886
1	1672	8887
1	1634	8888
1	1629	8889
1	1659	8890
1	1738	8891
1	1873	8892
1	2043	8893
1	2247	8894
1	2471	8895
1	2665	8896
1	2854	8897
1	3020	8898
1	3130	8899
1	3130	8900
1	3130	8901
1	3130	8902
1	3114	8903
1	2979	8904
1	2805	8905
1	2603	8906
1	2401	8907
1	2191	8908
1	2017	8909
1	1890	8910
1	1794	8911
1	1753	8912
1	1755	8913
1	1796	8914
1	1871	8915
1	1949	8916
1	2024	8917
1	2079	8918
1	2120	8919
1	1610	8940
1	1609	8941
1	1578	8942
1	1510	8943
1	1410	8944
1	1283	8945
1	1157	8946
1	1033	8947
1	918	8948
1	830	8949
1	769	8950
1	751	8951
1	779	8952
1	844	8953
1	944	8954
1	1071	8955
1	1203	8956
1	1332	8957
1	1453	8958
1	1542	8959
1	2124	8920
1	2104	8921
1	2048	8922
1	1959	8923
1	1843	8924
1	1707	8925
1	1557	8926
1	1409	8927
1	1265	8928
1	1153	8929
1	1079	8930
1	1045	8931
1	1058	8932
1	1105	8933
1	1171	8934
1	1259	8935
1	1350	8936
1	1447	8937
1	1521	8938
1	1580	8939
1	1598	8960
1	1615	8961
1	1592	8962
1	1541	8963
1	1454	8964
1	1337	8965
1	1212	8966
1	1093	8967
1	993	8968
1	912	8969
1	869	8970
1	860	8971
1	888	8972
1	954	8973
1	1058	8974
1	1188	8975
1	1328	8976
1	1466	8977
1	1581	8978
1	1660	8979
1	1701	8980
1	1711	8981
1	1686	8982
1	1626	8983
1	1531	8984
1	1425	8985
1	1291	8986
1	1162	8987
1	1049	8988
1	972	8989
1	923	8990
1	918	8991
1	950	8992
1	1019	8993
1	1118	8994
1	1242	8995
1	1376	8996
1	1503	8997
1	1607	8998
1	1683	8999
1	1734	9000
1	1741	9001
1	1713	9002
1	1652	9003
1	1555	9004
1	1427	9005
1	1283	9006
1	1152	9007
1	1035	9008
1	950	9009
1	899	9010
1	896	9011
1	932	9012
1	1010	9013
1	1117	9014
1	1245	9015
1	1373	9016
1	1502	9017
1	1607	9018
1	1698	9019
1	1757	9020
1	1779	9021
1	1760	9022
1	1699	9023
1	1607	9024
1	1489	9025
1	1361	9026
1	1233	9027
1	1113	9028
1	1007	9029
1	941	9030
1	913	9031
1	936	9032
1	1016	9033
1	1133	9034
1	1258	9035
1	1412	9036
1	1548	9037
1	1659	9038
1	1735	9039
1	1780	9040
1	1788	9041
1	1760	9042
1	1693	9043
1	1593	9044
1	1464	9045
1	1320	9046
1	1176	9047
1	1061	9048
1	979	9049
1	929	9050
1	927	9051
1	972	9052
1	1056	9053
1	1166	9054
1	1299	9055
1	1436	9056
1	1556	9057
1	1652	9058
1	1720	9059
1	1760	9060
1	1754	9061
1	1712	9062
1	1639	9063
1	1544	9064
1	1427	9065
1	1301	9066
1	1184	9067
1	1084	9068
1	1010	9069
1	963	9070
1	959	9071
1	1006	9072
1	1089	9073
1	1214	9074
1	1350	9075
1	1497	9076
1	1625	9077
1	1728	9078
1	1801	9079
1	1792	9100
1	1812	9101
1	1788	9102
1	1731	9103
1	1638	9104
1	1529	9105
1	1398	9106
1	1273	9107
1	1170	9108
1	1094	9109
1	1058	9110
1	1067	9111
1	1117	9112
1	1202	9113
1	1307	9114
1	1430	9115
1	1559	9116
1	1687	9117
1	1791	9118
1	1869	9119
1	1841	9080
1	1841	9081
1	1802	9082
1	1738	9083
1	1644	9084
1	1528	9085
1	1404	9086
1	1269	9087
1	1147	9088
1	1056	9089
1	999	9090
1	986	9091
1	1019	9092
1	1085	9093
1	1183	9094
1	1301	9095
1	1437	9096
1	1561	9097
1	1670	9098
1	1751	9099
1	1908	9120
1	1903	9121
1	1859	9122
1	1787	9123
1	1691	9124
1	1573	9125
1	1440	9126
1	1302	9127
1	1188	9128
1	1098	9129
1	1040	9130
1	1026	9131
1	1058	9132
1	1121	9133
1	1215	9134
1	1346	9135
1	1485	9136
1	1616	9137
1	1737	9138
1	1830	9139
1	1891	9140
1	1911	9141
1	1898	9142
1	1852	9143
1	1764	9144
1	1647	9145
1	1520	9146
1	1391	9147
1	1271	9148
1	1179	9149
1	1119	9150
1	1101	9151
1	1131	9152
1	1205	9153
1	1309	9154
1	1439	9155
1	1575	9156
1	1706	9157
1	1817	9158
1	1895	9159
1	1931	9160
1	1935	9161
1	1904	9162
1	1841	9163
1	1739	9164
1	1620	9165
1	1479	9166
1	1332	9167
1	1206	9168
1	1109	9169
1	1049	9170
1	1031	9171
1	1058	9172
1	1125	9173
1	1223	9174
1	1338	9175
1	1474	9176
1	1604	9177
1	1718	9178
1	1809	9179
1	1869	9180
1	1884	9181
1	1863	9182
1	1809	9183
1	1721	9184
1	1610	9185
1	1485	9186
1	1346	9187
1	1225	9188
1	1127	9189
1	1062	9190
1	1047	9191
1	1079	9192
1	1146	9193
1	1241	9194
1	1354	9195
1	1471	9196
1	1579	9197
1	1669	9198
1	1737	9199
1	1769	9200
1	1769	9201
1	1733	9202
1	1665	9203
1	1574	9204
1	1452	9205
1	1330	9206
1	1214	9207
1	1109	9208
1	1029	9209
1	984	9210
1	981	9211
1	1024	9212
1	1104	9213
1	1204	9214
1	1324	9215
1	1460	9216
1	1589	9217
1	1704	9218
1	1791	9219
1	1854	9220
1	1872	9221
1	1854	9222
1	1791	9223
1	1694	9224
1	1581	9225
1	1445	9226
1	1304	9227
1	1180	9228
1	1078	9229
1	1004	9230
1	972	9231
1	990	9232
1	1057	9233
1	1159	9234
1	1283	9235
1	1417	9236
1	1542	9237
1	1647	9238
1	1728	9239
1	1775	9240
1	1785	9241
1	1762	9242
1	1705	9243
1	1609	9244
1	1488	9245
1	1350	9246
1	1221	9247
1	1116	9248
1	1041	9249
1	999	9250
1	996	9251
1	1032	9252
1	1109	9253
1	1211	9254
1	1331	9255
1	1453	9256
1	1574	9257
1	1677	9258
1	1755	9259
1	1810	9260
1	1830	9261
1	1812	9262
1	1751	9263
1	1656	9264
1	1521	9265
1	1376	9266
1	1233	9267
1	1108	9268
1	1009	9269
1	963	9270
1	970	9271
1	1024	9272
1	1113	9273
1	1229	9274
1	1364	9275
1	1503	9276
1	1643	9277
1	1763	9278
1	1856	9279
1	1900	9280
1	1903	9281
1	1860	9282
1	1781	9283
1	1678	9284
1	1557	9285
1	1422	9286
1	1284	9287
1	1165	9288
1	1071	9289
1	1018	9290
1	1013	9291
1	1049	9292
1	1124	9293
1	1229	9294
1	1360	9295
1	1499	9296
1	1621	9297
1	1721	9298
1	1789	9299
1	1832	9300
1	1832	9301
1	1792	9302
1	1726	9303
1	1629	9304
1	1503	9305
1	1370	9306
1	1241	9307
1	1133	9308
1	1057	9309
1	1014	9310
1	1019	9311
1	1067	9312
1	1143	9313
1	1256	9314
1	1398	9315
1	1534	9316
1	1663	9317
1	1777	9318
1	1860	9319
1	1901	9320
1	1903	9321
1	1865	9322
1	1791	9323
1	1693	9324
1	1558	9325
1	1422	9326
1	1275	9327
1	1142	9328
1	1031	9329
1	958	9330
1	928	9331
1	950	9332
1	1024	9333
1	1123	9334
1	1265	9335
1	1398	9336
1	1529	9337
1	1634	9338
1	1708	9339
1	1751	9340
1	1764	9341
1	1749	9342
1	1711	9343
1	1642	9344
1	1553	9345
1	1454	9346
1	1346	9347
1	1251	9348
1	1180	9349
1	1139	9350
1	1145	9351
1	1193	9352
1	1269	9353
1	1372	9354
1	1500	9355
1	1621	9356
1	1738	9357
1	1835	9358
1	1896	9359
1	1936	9360
1	1934	9361
1	1895	9362
1	1818	9363
1	1710	9364
1	1582	9365
1	1446	9366
1	1308	9367
1	1188	9368
1	1094	9369
1	1032	9370
1	1021	9371
1	1058	9372
1	1135	9373
1	1247	9374
1	1381	9375
1	1516	9376
1	1636	9377
1	1736	9378
1	1815	9379
1	1980	9400
1	1994	9401
1	1967	9402
1	1897	9403
1	1791	9404
1	1671	9405
1	1527	9406
1	1377	9407
1	1249	9408
1	1157	9409
1	1102	9410
1	1089	9411
1	1123	9412
1	1190	9413
1	1292	9414
1	1413	9415
1	1542	9416
1	1669	9417
1	1779	9418
1	1869	9419
1	1860	9380
1	1873	9381
1	1856	9382
1	1796	9383
1	1723	9384
1	1623	9385
1	1513	9386
1	1402	9387
1	1305	9388
1	1227	9389
1	1186	9390
1	1188	9391
1	1225	9392
1	1293	9393
1	1396	9394
1	1511	9395
1	1634	9396
1	1751	9397
1	1859	9398
1	1939	9399
1	1922	9420
1	1940	9421
1	1920	9422
1	1863	9423
1	1772	9424
1	1669	9425
1	1554	9426
1	1443	9427
1	1346	9428
1	1286	9429
1	1255	9430
1	1269	9431
1	1323	9432
1	1410	9433
1	1515	9434
1	1634	9435
1	1759	9436
1	1873	9437
1	1971	9438
1	2029	9439
1	2061	9440
1	2055	9441
1	2019	9442
1	1953	9443
1	1854	9444
1	1712	9445
1	1567	9446
1	1428	9447
1	1305	9448
1	1219	9449
1	1171	9450
1	1157	9451
1	1177	9452
1	1236	9453
1	1332	9454
1	1458	9455
1	1593	9456
1	1721	9457
1	1832	9458
1	1913	9459
1	1956	9460
1	1971	9461
1	1948	9462
1	1886	9463
1	1791	9464
1	1683	9465
1	1561	9466
1	1448	9467
1	1345	9468
1	1267	9469
1	1224	9470
1	1219	9471
1	1258	9472
1	1320	9473
1	1418	9474
1	1526	9475
1	1634	9476
1	1746	9477
1	1843	9478
1	1908	9479
1	1950	9480
1	1949	9481
1	1914	9482
1	1849	9483
1	1749	9484
1	1632	9485
1	1503	9486
1	1380	9487
1	1273	9488
1	1195	9489
1	1147	9490
1	1139	9491
1	1174	9492
1	1242	9493
1	1344	9494
1	1472	9495
1	1595	9496
1	1711	9497
1	1816	9498
1	1887	9499
1	1926	9500
1	1926	9501
1	1888	9502
1	1817	9503
1	1712	9504
1	1585	9505
1	1451	9506
1	1318	9507
1	1194	9508
1	1103	9509
1	1057	9510
1	1049	9511
1	1086	9512
1	1163	9513
1	1267	9514
1	1396	9515
1	1523	9516
1	1642	9517
1	1747	9518
1	1835	9519
1	1886	9520
1	1916	9521
1	1909	9522
1	1868	9523
1	1787	9524
1	1686	9525
1	1556	9526
1	1426	9527
1	1302	9528
1	1204	9529
1	1139	9530
1	1127	9531
1	1158	9532
1	1232	9533
1	1337	9534
1	1463	9535
1	1589	9536
1	1712	9537
1	1820	9538
1	1903	9539
1	1872	9560
1	1885	9561
1	1864	9562
1	1803	9563
1	1713	9564
1	1594	9565
1	1465	9566
1	1333	9567
1	1221	9568
1	1140	9569
1	1112	9570
1	1135	9571
1	1212	9572
1	1332	9573
1	1503	9574
1	1704	9575
1	1917	9576
1	2120	9577
1	2314	9578
1	2485	9579
1	1949	9540
1	1953	9541
1	1922	9542
1	1869	9543
1	1785	9544
1	1675	9545
1	1548	9546
1	1415	9547
1	1286	9548
1	1187	9549
1	1118	9550
1	1098	9551
1	1121	9552
1	1183	9553
1	1280	9554
1	1411	9555
1	1534	9556
1	1654	9557
1	1752	9558
1	1830	9559
1	2602	9580
1	2700	9581
1	2758	9582
1	2789	9583
1	2781	9584
1	2745	9585
1	2695	9586
1	2638	9587
1	2581	9588
1	2546	9589
1	2522	9590
1	2519	9591
1	2526	9592
1	2569	9593
1	2630	9594
1	2696	9595
1	2749	9596
1	2790	9597
1	2816	9598
1	2818	9599
1	2801	9600
1	2751	9601
1	2664	9602
1	2552	9603
1	2417	9604
1	2250	9605
1	2070	9606
1	1900	9607
1	1751	9608
1	1635	9609
1	1549	9610
1	1512	9611
1	1519	9612
1	1556	9613
1	1623	9614
1	1715	9615
1	1814	9616
1	1896	9617
1	1955	9618
1	1989	9619
1	1989	9620
1	1953	9621
1	1884	9622
1	1773	9623
1	1636	9624
1	1474	9625
1	1301	9626
1	1140	9627
1	1004	9628
1	901	9629
1	848	9630
1	848	9631
1	891	9632
1	972	9633
1	1084	9634
1	1206	9635
1	1346	9636
1	1494	9637
1	1620	9638
1	1719	9639
1	1782	9640
1	1814	9641
1	1797	9642
1	1747	9643
1	1663	9644
1	1554	9645
1	1429	9646
1	1302	9647
1	1197	9648
1	1124	9649
1	1083	9650
1	1080	9651
1	1117	9652
1	1189	9653
1	1286	9654
1	1400	9655
1	1520	9656
1	1634	9657
1	1731	9658
1	1809	9659
1	1861	9660
1	1869	9661
1	1841	9662
1	1775	9663
1	1686	9664
1	1571	9665
1	1450	9666
1	1330	9667
1	1220	9668
1	1134	9669
1	1075	9670
1	1065	9671
1	1098	9672
1	1162	9673
1	1259	9674
1	1375	9675
1	1503	9676
1	1628	9677
1	1737	9678
1	1829	9679
1	1884	9680
1	1899	9681
1	1872	9682
1	1811	9683
1	1715	9684
1	1597	9685
1	1476	9686
1	1346	9687
1	1241	9688
1	1165	9689
1	1129	9690
1	1125	9691
1	1161	9692
1	1236	9693
1	1346	9694
1	1479	9695
1	1620	9696
1	1750	9697
1	1862	9698
1	1939	9699
1	1974	9700
1	1980	9701
1	1953	9702
1	1895	9703
1	1793	9704
1	1678	9705
1	1541	9706
1	1402	9707
1	1273	9708
1	1178	9709
1	1115	9710
1	1098	9711
1	1129	9712
1	1197	9713
1	1296	9714
1	1422	9715
1	1543	9716
1	1669	9717
1	1777	9718
1	1863	9719
1	1922	9720
1	1934	9721
1	1910	9722
1	1858	9723
1	1779	9724
1	1686	9725
1	1581	9726
1	1476	9727
1	1364	9728
1	1277	9729
1	1215	9730
1	1202	9731
1	1234	9732
1	1305	9733
1	1413	9734
1	1529	9735
1	1658	9736
1	1773	9737
1	1881	9738
1	1965	9739
1	2012	9740
1	2019	9741
1	1991	9742
1	1920	9743
1	1813	9744
1	1675	9745
1	1538	9746
1	1407	9747
1	1284	9748
1	1207	9749
1	1160	9750
1	1161	9751
1	1199	9752
1	1292	9753
1	1399	9754
1	1528	9755
1	1660	9756
1	1779	9757
1	1890	9758
1	1971	9759
1	2015	9760
1	2029	9761
1	2013	9762
1	1961	9763
1	1873	9764
1	1757	9765
1	1629	9766
1	1490	9767
1	1357	9768
1	1255	9769
1	1188	9770
1	1163	9771
1	1188	9772
1	1251	9773
1	1350	9774
1	1476	9775
1	1612	9776
1	1747	9777
1	1869	9778
1	1971	9779
1	2112	9800
1	2147	9801
1	2140	9802
1	2093	9803
1	2015	9804
1	1901	9805
1	1768	9806
1	1629	9807
1	1503	9808
1	1395	9809
1	1322	9810
1	1292	9811
1	1301	9812
1	1346	9813
1	1428	9814
1	1540	9815
1	1661	9816
1	1791	9817
1	1917	9818
1	2016	9819
1	2044	9780
1	2079	9781
1	2075	9782
1	2034	9783
1	1960	9784
1	1859	9785
1	1737	9786
1	1613	9787
1	1489	9788
1	1374	9789
1	1286	9790
1	1241	9791
1	1243	9792
1	1295	9793
1	1384	9794
1	1517	9795
1	1655	9796
1	1795	9797
1	1931	9798
1	2039	9799
1	2077	9820
1	2101	9821
1	2081	9822
1	2030	9823
1	1939	9824
1	1832	9825
1	1695	9826
1	1561	9827
1	1441	9828
1	1344	9829
1	1292	9830
1	1291	9831
1	1322	9832
1	1398	9833
1	1498	9834
1	1621	9835
1	1754	9836
1	1894	9837
1	2005	9838
1	2096	9839
1	2156	9840
1	2170	9841
1	2147	9842
1	2100	9843
1	2018	9844
1	1907	9845
1	1764	9846
1	1621	9847
1	1487	9848
1	1372	9849
1	1290	9850
1	1251	9851
1	1267	9852
1	1323	9853
1	1424	9854
1	1544	9855
1	1665	9856
1	1793	9857
1	1922	9858
1	2026	9859
1	2094	9860
1	2131	9861
1	2129	9862
1	2088	9863
1	2013	9864
1	1899	9865
1	1767	9866
1	1638	9867
1	1517	9868
1	1423	9869
1	1368	9870
1	1350	9871
1	1376	9872
1	1443	9873
1	1539	9874
1	1657	9875
1	1777	9876
1	1895	9877
1	1995	9878
1	2070	9879
1	2108	9880
1	2112	9881
1	2079	9882
1	2013	9883
1	1914	9884
1	1791	9885
1	1651	9886
1	1512	9887
1	1393	9888
1	1297	9889
1	1245	9890
1	1232	9891
1	1267	9892
1	1337	9893
1	1443	9894
1	1569	9895
1	1700	9896
1	1825	9897
1	1924	9898
1	2001	9899
1	2052	9900
1	2061	9901
1	2030	9902
1	1973	9903
1	1883	9904
1	1764	9905
1	1632	9906
1	1494	9907
1	1366	9908
1	1265	9909
1	1188	9910
1	1152	9911
1	1167	9912
1	1227	9913
1	1328	9914
1	1460	9915
1	1600	9916
1	1737	9917
1	1858	9918
1	1951	9919
1	2012	9920
1	2038	9921
1	2026	9922
1	1976	9923
1	1895	9924
1	1773	9925
1	1642	9926
1	1505	9927
1	1377	9928
1	1275	9929
1	1212	9930
1	1187	9931
1	1203	9932
1	1269	9933
1	1373	9934
1	1503	9935
1	1641	9936
1	1774	9937
1	1895	9938
1	1980	9939
1	2034	9940
1	2052	9941
1	2036	9942
1	1987	9943
1	1906	9944
1	1783	9945
1	1652	9946
1	1516	9947
1	1395	9948
1	1293	9949
1	1228	9950
1	1211	9951
1	1241	9952
1	1314	9953
1	1416	9954
1	1535	9955
1	1665	9956
1	1797	9957
1	1922	9958
1	2012	9959
1	2079	9960
1	2105	9961
1	2086	9962
1	2031	9963
1	1944	9964
1	1820	9965
1	1677	9966
1	1530	9967
1	1402	9968
1	1302	9969
1	1237	9970
1	1211	9971
1	1228	9972
1	1287	9973
1	1381	9974
1	1501	9975
1	1632	9976
1	1764	9977
1	1893	9978
1	1982	9979
1	2034	9980
1	2050	9981
1	2026	9982
1	1967	9983
1	1872	9984
1	1743	9985
1	1610	9986
1	1478	9987
1	1359	9988
1	1273	9989
1	1227	9990
1	1207	9991
1	1241	9992
1	1306	9993
1	1409	9994
1	1528	9995
1	1652	9996
1	1764	9997
1	1869	9998
1	1948	9999
1	1989	10000
1	2000	10001
1	1979	10002
1	1924	10003
1	1843	10004
1	1739	10005
1	1613	10006
1	1478	10007
1	1346	10008
1	1247	10009
1	1188	10010
1	1175	10011
1	1206	10012
1	1278	10013
1	1376	10014
1	1503	10015
1	1643	10016
1	1782	10017
1	1907	10018
1	2001	10019
1	2064	10020
1	2079	10021
1	2058	10022
1	2000	10023
1	1909	10024
1	1787	10025
1	1646	10026
1	1503	10027
1	1369	10028
1	1267	10029
1	1189	10030
1	1163	10031
1	1187	10032
1	1242	10033
1	1334	10034
1	1450	10035
1	1581	10036
1	1698	10037
1	1812	10038
1	1895	10039
1	1957	10040
1	1990	10041
1	1993	10042
1	1962	10043
1	1899	10044
1	1791	10045
1	1680	10046
1	1555	10047
1	1438	10048
1	1338	10049
1	1278	10050
1	1261	10051
1	1278	10052
1	1330	10053
1	1422	10054
1	1533	10055
1	1653	10056
1	1770	10057
1	1882	10058
1	1972	10059
1	2022	10060
1	2039	10061
1	2019	10062
1	1960	10063
1	1868	10064
1	1750	10065
1	1612	10066
1	1474	10067
1	1343	10068
1	1241	10069
1	1179	10070
1	1160	10071
1	1187	10072
1	1256	10073
1	1364	10074
1	1497	10075
1	1638	10076
1	1777	10077
1	1907	10078
1	2008	10079
1	2081	10080
1	2113	10081
1	2101	10082
1	2045	10083
1	1952	10084
1	1830	10085
1	1687	10086
1	1553	10087
1	1427	10088
1	1324	10089
1	1253	10090
1	1230	10091
1	1257	10092
1	1325	10093
1	1437	10094
1	1573	10095
1	1710	10096
1	1843	10097
1	1952	10098
1	2026	10099
1	2070	10100
1	2083	10101
1	2070	10102
1	2021	10103
1	1942	10104
1	1826	10105
1	1699	10106
