#Date:= 2024-10-01T15:05:25.282966
#Sampling Rate(Hz):= 1000
#Labels:= LOD	ECG	TS
1	1749	20
1	1687	21
1	1625	22
1	1580	23
1	1548	24
1	1527	25
1	1513	26
1	1505	27
1	1514	28
1	1517	29
1	1517	30
1	1512	31
1	1503	32
1	1494	33
1	1481	34
1	1474	35
1	1467	36
1	1463	37
1	1481	38
1	1476	39
1	1677	60
1	1674	61
1	1668	62
1	1665	63
1	1656	64
1	1638	65
1	1621	66
1	1596	67
1	1566	68
1	1539	69
1	1508	70
1	1481	71
1	1464	72
1	1453	73
1	1450	74
1	1456	75
1	1476	76
1	1497	77
1	1517	78
1	1535	79
1	1477	40
1	1482	41
1	1481	42
1	1476	43
1	1474	44
1	1476	45
1	1481	46
1	1493	47
1	1503	48
1	1516	49
1	1531	50
1	1544	51
1	1560	52
1	1577	53
1	1594	54
1	1611	55
1	1634	56
1	1660	57
1	1673	58
1	1674	59
1	1599	100
1	1605	101
1	1605	102
1	1602	103
1	1598	104
1	1591	105
1	1581	106
1	1566	107
1	1555	108
1	1548	109
1	1539	110
1	1529	111
1	1515	112
1	1505	113
1	1508	114
1	1508	115
1	1523	116
1	1540	117
1	1560	118
1	1582	119
1	1554	80
1	1571	81
1	1586	82
1	1598	83
1	1607	84
1	1613	85
1	1629	86
1	1642	87
1	1648	88
1	1647	89
1	1637	90
1	1620	91
1	1607	92
1	1596	93
1	1587	94
1	1582	95
1	1581	96
1	1583	97
1	1584	98
1	1592	99
1	1602	120
1	1609	121
1	1607	122
1	1597	123
1	1574	124
1	1553	125
1	1531	126
1	1517	127
1	1503	128
1	1502	129
1	1503	130
1	1517	131
1	1529	132
1	1535	133
1	1540	134
1	1543	135
1	1555	136
1	1572	137
1	1595	138
1	1620	139
1	1760	180
1	1747	181
1	1716	182
1	1674	183
1	1625	184
1	1576	185
1	1532	186
1	1501	187
1	1471	188
1	1436	189
1	1413	190
1	1397	191
1	1382	192
1	1379	193
1	1394	194
1	1407	195
1	1432	196
1	1464	197
1	1500	198
1	1530	199
1	1647	160
1	1671	161
1	1692	162
1	1711	163
1	1724	164
1	1726	165
1	1721	166
1	1716	167
1	1706	168
1	1693	169
1	1680	170
1	1665	171
1	1654	172
1	1645	173
1	1641	174
1	1654	175
1	1682	176
1	1711	177
1	1738	178
1	1759	179
1	1557	180
1	1581	181
1	1594	182
1	1602	183
1	1596	184
1	1584	185
1	1581	186
1	1587	187
1	1596	188
1	1621	189
1	1635	190
1	1647	191
1	1657	192
1	1661	193
1	1664	194
1	1661	195
1	1652	196
1	1631	197
1	1604	198
1	1581	199
1	1568	200
1	1559	201
1	1555	202
1	1553	203
1	1554	204
1	1548	205
1	1544	206
1	1547	207
1	1549	208
1	1569	209
1	1587	210
1	1605	211
1	1619	212
1	1634	213
1	1649	214
1	1665	215
1	1688	216
1	1711	217
1	1733	218
1	1753	219
1	1760	220
1	1761	221
1	1755	222
1	1746	223
1	1734	224
1	1712	225
1	1691	226
1	1665	227
1	1634	228
1	1603	229
1	1583	230
1	1580	231
1	1584	232
1	1594	233
1	1610	234
1	1621	235
1	1641	236
1	1662	237
1	1686	238
1	1697	239
1	1754	280
1	1764	281
1	1765	282
1	1760	283
1	1744	284
1	1724	285
1	1710	286
1	1698	287
1	1688	288
1	1675	289
1	1665	290
1	1659	291
1	1659	292
1	1660	293
1	1667	294
1	1675	295
1	1692	296
1	1706	297
1	1712	298
1	1708	299
1	1646	260
1	1665	261
1	1679	262
1	1686	263
1	1675	264
1	1656	265
1	1639	266
1	1628	267
1	1620	268
1	1618	269
1	1625	270
1	1633	271
1	1647	272
1	1661	273
1	1668	274
1	1674	275
1	1686	276
1	1703	277
1	1724	278
1	1743	279
1	1710	240
1	1715	241
1	1718	242
1	1721	243
1	1712	244
1	1695	245
1	1671	246
1	1647	247
1	1613	248
1	1582	249
1	1561	250
1	1554	251
1	1546	252
1	1549	253
1	1555	254
1	1559	255
1	1574	256
1	1589	257
1	1607	258
1	1628	259
1	1694	300
1	1686	301
1	1675	302
1	1662	303
1	1652	304
1	1649	305
1	1657	306
1	1660	307
1	1659	308
1	1665	309
1	1674	310
1	1689	311
1	1710	312
1	1727	313
1	1747	314
1	1764	315
1	1792	316
1	1821	317
1	1846	318
1	1859	319
1	1868	320
1	1870	321
1	1868	322
1	1860	323
1	1852	324
1	1826	325
1	1791	326
1	1765	327
1	1731	328
1	1709	329
1	1691	330
1	1688	331
1	1697	332
1	1713	333
1	1738	334
1	1772	335
1	1817	336
1	1856	337
1	1892	338
1	1923	339
1	1918	380
1	1929	381
1	1935	382
1	1940	383
1	1948	384
1	1946	385
1	1947	386
1	1937	387
1	1919	388
1	1888	389
1	1858	390
1	1834	391
1	1814	392
1	1796	393
1	1787	394
1	1783	395
1	1787	396
1	1793	397
1	1815	398
1	1837	399
1	1919	360
1	1906	361
1	1879	362
1	1850	363
1	1826	364
1	1795	365
1	1778	366
1	1763	367
1	1754	368
1	1764	369
1	1769	370
1	1778	371
1	1790	372
1	1801	373
1	1816	374
1	1828	375
1	1849	376
1	1870	377
1	1888	378
1	1901	379
1	1940	340
1	1948	341
1	1960	342
1	1955	343
1	1953	344
1	1934	345
1	1919	346
1	1901	347
1	1882	348
1	1867	349
1	1859	350
1	1864	351
1	1872	352
1	1881	353
1	1886	354
1	1886	355
1	1895	356
1	1907	357
1	1917	358
1	1922	359
1	1855	400
1	1875	401
1	1894	402
1	1901	403
1	1895	404
1	1872	405
1	1852	406
1	1827	407
1	1791	408
1	1764	409
1	1744	410
1	1728	411
1	1715	412
1	1711	413
1	1715	414
1	1721	415
1	1740	416
1	1760	417
1	1773	418
1	1789	419
1	1808	420
1	1822	421
1	1826	422
1	1816	423
1	1781	424
1	1751	425
1	1726	426
1	1705	427
1	1686	428
1	1679	429
1	1671	430
1	1670	431
1	1672	432
1	1682	433
1	1688	434
1	1698	435
1	1713	436
1	1728	437
1	1738	438
1	1724	439
1	1703	440
1	1675	441
1	1638	442
1	1594	443
1	1555	444
1	1518	445
1	1495	446
1	1489	447
1	1479	448
1	1480	449
1	1482	450
1	1490	451
1	1503	452
1	1515	453
1	1530	454
1	1556	455
1	1598	456
1	1637	457
1	1679	458
1	1718	459
1	1736	460
1	1738	461
1	1733	462
1	1715	463
1	1687	464
1	1656	465
1	1629	466
1	1600	467
1	1568	468
1	1530	469
1	1503	470
1	1484	471
1	1476	472
1	1476	473
1	1488	474
1	1500	475
1	1524	476
1	1548	477
1	1575	478
1	1592	479
1	1603	480
1	1603	481
1	1592	482
1	1573	483
1	1539	484
1	1511	485
1	1490	486
1	1475	487
1	1459	488
1	1455	489
1	1453	490
1	1459	491
1	1478	492
1	1507	493
1	1552	494
1	1601	495
1	1662	496
1	1718	497
1	1760	498
1	1781	499
1	1796	500
1	1813	501
1	1801	502
1	1778	503
1	1749	504
1	1701	505
1	1652	506
1	1605	507
1	1549	508
1	1514	509
1	1481	510
1	1455	511
1	1441	512
1	1435	513
1	1429	514
1	1435	515
1	1453	516
1	1482	517
1	1515	518
1	1555	519
1	1589	520
1	1620	521
1	1641	522
1	1660	523
1	1673	524
1	1679	525
1	1683	526
1	1682	527
1	1681	528
1	1667	529
1	1660	530
1	1647	531
1	1634	532
1	1616	533
1	1598	534
1	1573	535
1	1560	536
1	1562	537
1	1571	538
1	1580	539
1	1593	540
1	1604	541
1	1607	542
1	1607	543
1	1592	544
1	1569	545
1	1555	546
1	1555	547
1	1558	548
1	1566	549
1	1572	550
1	1581	551
1	1597	552
1	1613	553
1	1634	554
1	1659	555
1	1686	556
1	1707	557
1	1717	558
1	1711	559
1	1643	580
1	1648	581
1	1644	582
1	1630	583
1	1605	584
1	1572	585
1	1544	586
1	1514	587
1	1485	588
1	1451	589
1	1432	590
1	1424	591
1	1435	592
1	1455	593
1	1495	594
1	1527	595
1	1557	596
1	1587	597
1	1612	598
1	1634	599
1	1693	560
1	1667	561
1	1629	562
1	1587	563
1	1546	564
1	1498	565
1	1450	566
1	1422	567
1	1405	568
1	1402	569
1	1403	570
1	1405	571
1	1418	572
1	1440	573
1	1472	574
1	1511	575
1	1555	576
1	1584	577
1	1608	578
1	1632	579
1	1645	600
1	1651	601
1	1647	602
1	1634	603
1	1605	604
1	1571	605
1	1543	606
1	1520	607
1	1495	608
1	1482	609
1	1475	610
1	1471	611
1	1476	612
1	1490	613
1	1513	614
1	1537	615
1	1555	616
1	1567	617
1	1579	618
1	1582	619
1	1583	620
1	1580	621
1	1566	622
1	1554	623
1	1543	624
1	1524	625
1	1503	626
1	1487	627
1	1474	628
1	1471	629
1	1472	630
1	1476	631
1	1487	632
1	1503	633
1	1517	634
1	1542	635
1	1580	636
1	1616	637
1	1656	638
1	1682	639
1	1682	640
1	1676	641
1	1662	642
1	1641	643
1	1615	644
1	1589	645
1	1568	646
1	1549	647
1	1529	648
1	1517	649
1	1514	650
1	1525	651
1	1536	652
1	1547	653
1	1554	654
1	1561	655
1	1580	656
1	1606	657
1	1629	658
1	1642	659
1	1647	660
1	1645	661
1	1630	662
1	1607	663
1	1579	664
1	1539	665
1	1505	666
1	1489	667
1	1486	668
1	1502	669
1	1517	670
1	1531	671
1	1551	672
1	1567	673
1	1582	674
1	1603	675
1	1624	676
1	1639	677
1	1658	678
1	1657	679
1	1644	680
1	1618	681
1	1579	682
1	1535	683
1	1492	684
1	1445	685
1	1405	686
1	1372	687
1	1350	688
1	1346	689
1	1361	690
1	1396	691
1	1432	692
1	1476	693
1	1521	694
1	1566	695
1	1611	696
1	1652	697
1	1686	698
1	1712	699
1	1724	700
1	1713	701
1	1693	702
1	1661	703
1	1621	704
1	1579	705
1	1544	706
1	1522	707
1	1504	708
1	1495	709
1	1492	710
1	1494	711
1	1497	712
1	1502	713
1	1507	714
1	1505	715
1	1508	716
1	1512	717
1	1518	718
1	1525	719
1	1527	720
1	1517	721
1	1502	722
1	1485	723
1	1471	724
1	1462	725
1	1465	726
1	1474	727
1	1489	728
1	1519	729
1	1544	730
1	1578	731
1	1607	732
1	1634	733
1	1659	734
1	1682	735
1	1697	736
1	1700	737
1	1697	738
1	1679	739
1	1660	740
1	1633	741
1	1602	742
1	1571	743
1	1541	744
1	1509	745
1	1492	746
1	1488	747
1	1481	748
1	1482	749
1	1499	750
1	1521	751
1	1543	752
1	1566	753
1	1582	754
1	1600	755
1	1616	756
1	1626	757
1	1629	758
1	1632	759
1	1626	760
1	1625	761
1	1620	762
1	1609	763
1	1599	764
1	1584	765
1	1580	766
1	1577	767
1	1574	768
1	1566	769
1	1560	770
1	1557	771
1	1555	772
1	1554	773
1	1557	774
1	1555	775
1	1554	776
1	1555	777
1	1559	778
1	1559	779
1	1556	780
1	1553	781
1	1543	782
1	1534	783
1	1511	784
1	1490	785
1	1482	786
1	1490	787
1	1507	788
1	1536	789
1	1561	790
1	1593	791
1	1626	792
1	1658	793
1	1687	794
1	1717	795
1	1749	796
1	1780	797
1	1809	798
1	1829	799
1	1845	800
1	1857	801
1	1865	802
1	1869	803
1	1869	804
1	1855	805
1	1838	806
1	1816	807
1	1787	808
1	1759	809
1	1737	810
1	1715	811
1	1692	812
1	1670	813
1	1649	814
1	1633	815
1	1623	816
1	1613	817
1	1607	818
1	1610	819
1	1612	820
1	1610	821
1	1602	822
1	1584	823
1	1557	824
1	1535	825
1	1521	826
1	1508	827
1	1502	828
1	1489	829
1	1477	830
1	1467	831
1	1458	832
1	1459	833
1	1476	834
1	1495	835
1	1535	836
1	1581	837
1	1629	838
1	1661	839
1	1701	840
1	1738	841
1	1760	842
1	1764	843
1	1754	844
1	1737	845
1	1712	846
1	1685	847
1	1647	848
1	1613	849
1	1587	850
1	1573	851
1	1567	852
1	1561	853
1	1555	854
1	1555	855
1	1567	856
1	1584	857
1	1610	858
1	1639	859
1	1674	860
1	1703	861
1	1723	862
1	1729	863
1	1725	864
1	1718	865
1	1704	866
1	1686	867
1	1664	868
1	1647	869
1	1634	870
1	1623	871
1	1622	872
1	1634	873
1	1643	874
1	1660	875
1	1686	876
1	1715	877
1	1738	878
1	1757	879
1	1764	880
1	1762	881
1	1751	882
1	1734	883
1	1711	884
1	1679	885
1	1652	886
1	1631	887
1	1608	888
1	1592	889
1	1581	890
1	1582	891
1	1590	892
1	1602	893
1	1618	894
1	1632	895
1	1659	896
1	1695	897
1	1738	898
1	1778	899
1	1817	900
1	1840	901
1	1843	902
1	1839	903
1	1803	904
1	1763	905
1	1725	906
1	1686	907
1	1658	908
1	1646	909
1	1634	910
1	1635	911
1	1635	912
1	1634	913
1	1636	914
1	1639	915
1	1652	916
1	1669	917
1	1695	918
1	1713	919
1	1738	920
1	1760	921
1	1769	922
1	1775	923
1	1773	924
1	1760	925
1	1738	926
1	1714	927
1	1688	928
1	1657	929
1	1626	930
1	1605	931
1	1590	932
1	1589	933
1	1593	934
1	1610	935
1	1649	936
1	1697	937
1	1752	938
1	1801	939
1	1831	940
1	1856	941
1	1861	942
1	1848	943
1	1832	944
1	1800	945
1	1766	946
1	1731	947
1	1700	948
1	1673	949
1	1657	950
1	1651	951
1	1651	952
1	1649	953
1	1644	954
1	1639	955
1	1652	956
1	1667	957
1	1699	958
1	1731	959
1	1764	960
1	1792	961
1	1822	962
1	1836	963
1	1825	964
1	1803	965
1	1791	966
1	1778	967
1	1767	968
1	1764	969
1	1757	970
1	1751	971
1	1753	972
1	1764	973
1	1775	974
1	1791	975
1	1821	976
1	1850	977
1	1871	978
1	1883	979
1	1888	1000
1	1888	1001
1	1880	1002
1	1864	1003
1	1843	1004
1	1808	1005
1	1783	1006
1	1770	1007
1	1762	1008
1	1753	1009
1	1749	1010
1	1752	1011
1	1764	1012
1	1780	1013
1	1793	1014
1	1818	1015
1	1854	1016
1	1894	1017
1	1922	1018
1	1947	1019
1	1952	1000
1	1949	1001
1	1937	1002
1	1922	1003
1	1899	1004
1	1870	1005
1	1845	1006
1	1817	1007
1	1780	1008
1	1749	1009
1	1726	1010
1	1712	1011
1	1711	1012
1	1717	1013
1	1742	1014
1	1765	1015
1	1800	1016
1	1836	1017
1	1869	1018
1	1904	1019
1	1935	1040
1	1962	1041
1	1980	1042
1	1991	1043
1	1979	1044
1	1960	1045
1	1947	1046
1	1931	1047
1	1922	1048
1	1920	1049
1	1909	1050
1	1910	1051
1	1923	1052
1	1945	1053
1	1963	1054
1	1985	1055
1	2009	1056
1	2030	1057
1	2050	1058
1	2052	1059
1	2048	1040
1	2035	1041
1	2006	1042
1	1962	1043
1	1909	1044
1	1863	1045
1	1829	1046
1	1793	1047
1	1769	1048
1	1751	1049
1	1742	1050
1	1751	1051
1	1764	1052
1	1793	1053
1	1831	1054
1	1872	1055
1	1919	1056
1	1961	1057
1	1997	1058
1	2017	1059
1	2017	1060
1	2012	1061
1	1998	1062
1	1975	1063
1	1947	1064
1	1908	1065
1	1870	1066
1	1835	1067
1	1791	1068
1	1744	1069
1	1700	1070
1	1660	1071
1	1625	1072
1	1598	1073
1	1582	1074
1	1578	1075
1	1591	1076
1	1621	1077
1	1661	1078
1	1702	1079
1	1648	1100
1	1643	1101
1	1625	1102
1	1603	1103
1	1577	1104
1	1549	1105
1	1539	1106
1	1531	1107
1	1528	1108
1	1527	1109
1	1532	1110
1	1544	1111
1	1557	1112
1	1576	1113
1	1581	1114
1	1592	1115
1	1602	1116
1	1607	1117
1	1607	1118
1	1615	1119
1	1734	1080
1	1752	1081
1	1763	1082
1	1764	1083
1	1749	1084
1	1729	1085
1	1710	1086
1	1690	1087
1	1677	1088
1	1670	1089
1	1660	1090
1	1652	1091
1	1647	1092
1	1641	1093
1	1634	1094
1	1633	1095
1	1635	1096
1	1644	1097
1	1651	1098
1	1651	1099
1	1615	1120
1	1615	1121
1	1610	1122
1	1603	1123
1	1592	1124
1	1575	1125
1	1558	1126
1	1550	1127
1	1544	1128
1	1539	1129
1	1543	1130
1	1554	1131
1	1570	1132
1	1586	1133
1	1605	1134
1	1617	1135
1	1634	1136
1	1652	1137
1	1673	1138
1	1683	1139
1	1686	1140
1	1688	1141
1	1680	1142
1	1662	1143
1	1639	1144
1	1611	1145
1	1590	1146
1	1572	1147
1	1557	1148
1	1548	1149
1	1544	1150
1	1543	1151
1	1546	1152
1	1553	1153
1	1551	1154
1	1555	1155
1	1566	1156
1	1594	1157
1	1618	1158
1	1638	1159
1	1656	1160
1	1672	1161
1	1683	1162
1	1680	1163
1	1663	1164
1	1634	1165
1	1610	1166
1	1587	1167
1	1568	1168
1	1557	1169
1	1548	1170
1	1541	1171
1	1541	1172
1	1544	1173
1	1554	1174
1	1574	1175
1	1607	1176
1	1634	1177
1	1660	1178
1	1683	1179
1	1688	1180
1	1686	1181
1	1674	1182
1	1649	1183
1	1619	1184
1	1585	1185
1	1557	1186
1	1533	1187
1	1516	1188
1	1492	1189
1	1475	1190
1	1463	1191
1	1462	1192
1	1474	1193
1	1494	1194
1	1518	1195
1	1549	1196
1	1584	1197
1	1618	1198
1	1645	1199
1	1667	1200
1	1686	1201
1	1698	1202
1	1698	1203
1	1680	1204
1	1649	1205
1	1623	1206
1	1584	1207
1	1550	1208
1	1529	1209
1	1508	1210
1	1500	1211
1	1497	1212
1	1494	1213
1	1491	1214
1	1497	1215
1	1526	1216
1	1563	1217
1	1607	1218
1	1643	1219
1	1661	1240
1	1649	1241
1	1639	1242
1	1623	1243
1	1596	1244
1	1576	1245
1	1563	1246
1	1555	1247
1	1546	1248
1	1537	1249
1	1523	1250
1	1503	1251
1	1496	1252
1	1490	1253
1	1489	1254
1	1494	1255
1	1514	1256
1	1549	1257
1	1602	1258
1	1648	1259
1	1667	1240
1	1682	1241
1	1680	1242
1	1669	1243
1	1654	1244
1	1625	1245
1	1599	1246
1	1568	1247
1	1546	1248
1	1529	1249
1	1524	1250
1	1526	1251
1	1537	1252
1	1544	1253
1	1554	1254
1	1569	1255
1	1593	1256
1	1613	1257
1	1637	1258
1	1658	1259
1	1643	1280
1	1618	1281
1	1594	1282
1	1573	1283
1	1553	1284
1	1527	1285
1	1503	1286
1	1482	1287
1	1468	1288
1	1462	1289
1	1461	1290
1	1471	1291
1	1490	1292
1	1521	1293
1	1550	1294
1	1583	1295
1	1621	1296
1	1667	1297
1	1712	1298
1	1750	1299
1	1693	1260
1	1728	1261
1	1751	1262
1	1764	1263
1	1756	1264
1	1736	1265
1	1715	1266
1	1697	1267
1	1684	1268
1	1680	1269
1	1677	1270
1	1679	1271
1	1682	1272
1	1686	1273
1	1684	1274
1	1682	1275
1	1682	1276
1	1683	1277
1	1682	1278
1	1661	1279
1	1769	1300
1	1775	1301
1	1767	1302
1	1751	1303
1	1723	1304
1	1686	1305
1	1650	1306
1	1616	1307
1	1587	1308
1	1557	1309
1	1541	1310
1	1533	1311
1	1533	1312
1	1540	1313
1	1559	1314
1	1581	1315
1	1612	1316
1	1651	1317
1	1697	1318
1	1738	1319
1	1776	1320
1	1802	1321
1	1819	1322
1	1824	1323
1	1808	1324
1	1785	1325
1	1764	1326
1	1734	1327
1	1706	1328
1	1690	1329
1	1668	1330
1	1644	1331
1	1616	1332
1	1592	1333
1	1572	1334
1	1559	1335
1	1557	1336
1	1569	1337
1	1581	1338
1	1593	1339
1	1611	1340
1	1628	1341
1	1633	1342
1	1620	1343
1	1600	1344
1	1581	1345
1	1566	1346
1	1556	1347
1	1544	1348
1	1539	1349
1	1542	1350
1	1554	1351
1	1561	1352
1	1570	1353
1	1577	1354
1	1581	1355
1	1595	1356
1	1608	1357
1	1625	1358
1	1634	1359
1	1652	1360
1	1660	1361
1	1665	1362
1	1660	1363
1	1645	1364
1	1631	1365
1	1613	1366
1	1594	1367
1	1569	1368
1	1539	1369
1	1517	1370
1	1500	1371
1	1493	1372
1	1495	1373
1	1507	1374
1	1525	1375
1	1555	1376
1	1596	1377
1	1636	1378
1	1678	1379
1	1714	1380
1	1746	1381
1	1755	1382
1	1742	1383
1	1700	1384
1	1658	1385
1	1618	1386
1	1581	1387
1	1543	1388
1	1515	1389
1	1493	1390
1	1488	1391
1	1503	1392
1	1529	1393
1	1557	1394
1	1582	1395
1	1606	1396
1	1628	1397
1	1648	1398
1	1668	1399
1	1690	1400
1	1709	1401
1	1707	1402
1	1693	1403
1	1682	1404
1	1661	1405
1	1647	1406
1	1629	1407
1	1607	1408
1	1584	1409
1	1569	1410
1	1557	1411
1	1557	1412
1	1571	1413
1	1585	1414
1	1611	1415
1	1644	1416
1	1674	1417
1	1697	1418
1	1715	1419
1	1718	1420
1	1716	1421
1	1701	1422
1	1671	1423
1	1625	1424
1	1575	1425
1	1529	1426
1	1488	1427
1	1454	1428
1	1424	1429
1	1404	1430
1	1397	1431
1	1397	1432
1	1409	1433
1	1433	1434
1	1467	1435
1	1513	1436
1	1573	1437
1	1633	1438
1	1675	1439
1	1715	1440
1	1738	1441
1	1751	1442
1	1750	1443
1	1734	1444
1	1714	1445
1	1697	1446
1	1677	1447
1	1651	1448
1	1621	1449
1	1596	1450
1	1581	1451
1	1573	1452
1	1569	1453
1	1574	1454
1	1581	1455
1	1597	1456
1	1620	1457
1	1652	1458
1	1686	1459
1	1719	1460
1	1751	1461
1	1769	1462
1	1777	1463
1	1769	1464
1	1757	1465
1	1746	1466
1	1737	1467
1	1725	1468
1	1713	1469
1	1703	1470
1	1687	1471
1	1676	1472
1	1660	1473
1	1643	1474
1	1634	1475
1	1634	1476
1	1634	1477
1	1629	1478
1	1615	1479
1	1596	1480
1	1581	1481
1	1564	1482
1	1544	1483
1	1515	1484
1	1484	1485
1	1474	1486
1	1474	1487
1	1485	1488
1	1497	1489
1	1516	1490
1	1534	1491
1	1551	1492
1	1566	1493
1	1590	1494
1	1613	1495
1	1643	1496
1	1662	1497
1	1682	1498
1	1686	1499
1	1676	1500
1	1660	1501
1	1643	1502
1	1625	1503
1	1597	1504
1	1579	1505
1	1568	1506
1	1567	1507
1	1575	1508
1	1590	1509
1	1607	1510
1	1629	1511
1	1649	1512
1	1678	1513
1	1704	1514
1	1736	1515
1	1764	1516
1	1796	1517
1	1826	1518
1	1830	1519
1	1817	1520
1	1798	1521
1	1773	1522
1	1738	1523
1	1700	1524
1	1649	1525
1	1607	1526
1	1567	1527
1	1543	1528
1	1529	1529
1	1518	1530
1	1516	1531
1	1525	1532
1	1540	1533
1	1555	1534
1	1581	1535
1	1609	1536
1	1647	1537
1	1677	1538
1	1704	1539
1	1713	1540
1	1703	1541
1	1702	1542
1	1691	1543
1	1667	1544
1	1647	1545
1	1634	1546
1	1613	1547
1	1587	1548
1	1561	1549
1	1540	1550
1	1529	1551
1	1528	1552
1	1538	1553
1	1557	1554
1	1593	1555
1	1634	1556
1	1680	1557
1	1724	1558
1	1759	1559
1	1790	1560
1	1815	1561
1	1830	1562
1	1831	1563
1	1812	1564
1	1782	1565
1	1751	1566
1	1713	1567
1	1681	1568
1	1646	1569
1	1607	1570
1	1570	1571
1	1546	1572
1	1534	1573
1	1533	1574
1	1543	1575
1	1567	1576
1	1595	1577
1	1628	1578
1	1655	1579
1	1686	1580
1	1710	1581
1	1724	1582
1	1723	1583
1	1719	1584
1	1708	1585
1	1705	1586
1	1701	1587
1	1701	1588
1	1707	1589
1	1718	1590
1	1734	1591
1	1751	1592
1	1762	1593
1	1764	1594
1	1772	1595
1	1783	1596
1	1789	1597
1	1787	1598
1	1783	1599
1	1766	1600
1	1751	1601
1	1736	1602
1	1711	1603
1	1684	1604
1	1660	1605
1	1644	1606
1	1633	1607
1	1625	1608
1	1618	1609
1	1625	1610
1	1637	1611
1	1656	1612
1	1682	1613
1	1710	1614
1	1737	1615
1	1760	1616
1	1783	1617
1	1792	1618
1	1791	1619
1	1787	1620
1	1775	1621
1	1757	1622
1	1739	1623
1	1712	1624
1	1687	1625
1	1672	1626
1	1660	1627
1	1655	1628
1	1657	1629
1	1659	1630
1	1664	1631
1	1676	1632
1	1691	1633
1	1708	1634
1	1737	1635
1	1769	1636
1	1816	1637
1	1856	1638
1	1883	1639
1	1908	1640
1	1922	1641
1	1922	1642
1	1908	1643
1	1885	1644
1	1842	1645
1	1817	1646
1	1788	1647
1	1760	1648
1	1743	1649
1	1738	1650
1	1738	1651
1	1750	1652
1	1765	1653
1	1782	1654
1	1814	1655
1	1845	1656
1	1873	1657
1	1895	1658
1	1912	1659
1	1913	1660
1	1908	1661
1	1895	1662
1	1872	1663
1	1851	1664
1	1826	1665
1	1798	1666
1	1775	1667
1	1754	1668
1	1731	1669
1	1725	1670
1	1733	1671
1	1750	1672
1	1777	1673
1	1812	1674
1	1854	1675
1	1899	1676
1	1956	1677
1	2000	1678
1	2037	1679
1	2064	1680
1	2075	1681
1	2070	1682
1	2040	1683
1	1979	1684
1	1914	1685
1	1855	1686
1	1792	1687
1	1750	1688
1	1726	1689
1	1707	1690
1	1699	1691
1	1698	1692
1	1710	1693
1	1729	1694
1	1764	1695
1	1803	1696
1	1850	1697
1	1890	1698
1	1916	1699
1	1936	1700
1	1947	1701
1	1945	1702
1	1929	1703
1	1910	1704
1	1882	1705
1	1856	1706
1	1824	1707
1	1798	1708
1	1782	1709
1	1777	1710
1	1778	1711
1	1787	1712
1	1796	1713
1	1808	1714
1	1823	1715
1	1844	1716
1	1869	1717
1	1890	1718
1	1911	1719
1	1916	1720
1	1908	1721
1	1891	1722
1	1870	1723
1	1849	1724
1	1832	1725
1	1817	1726
1	1796	1727
1	1779	1728
1	1756	1729
1	1740	1730
1	1723	1731
1	1711	1732
1	1708	1733
1	1715	1734
1	1730	1735
1	1746	1736
1	1764	1737
1	1780	1738
1	1783	1739
1	1773	1740
1	1761	1741
1	1743	1742
1	1720	1743
1	1691	1744
1	1665	1745
1	1639	1746
1	1618	1747
1	1600	1748
1	1585	1749
1	1575	1750
1	1560	1751
1	1550	1752
1	1553	1753
1	1549	1754
1	1554	1755
1	1559	1756
1	1568	1757
1	1577	1758
1	1579	1759
1	1683	1780
1	1686	1781
1	1684	1782
1	1669	1783
1	1647	1784
1	1628	1785
1	1617	1786
1	1611	1787
1	1616	1788
1	1619	1789
1	1620	1790
1	1620	1791
1	1616	1792
1	1608	1793
1	1605	1794
1	1605	1795
1	1602	1796
1	1602	1797
1	1593	1798
1	1581	1799
1	1580	1760
1	1582	1761
1	1590	1762
1	1596	1763
1	1602	1764
1	1598	1765
1	1597	1766
1	1597	1767
1	1597	1768
1	1595	1769
1	1593	1770
1	1589	1771
1	1583	1772
1	1581	1773
1	1580	1774
1	1588	1775
1	1602	1776
1	1619	1777
1	1638	1778
1	1662	1779
1	1566	1800
1	1550	1801
1	1531	1802
1	1526	1803
1	1518	1804
1	1520	1805
1	1521	1806
1	1521	1807
1	1525	1808
1	1529	1809
1	1536	1810
1	1541	1811
1	1551	1812
1	1562	1813
1	1584	1814
1	1618	1815
1	1651	1816
1	1686	1817
1	1715	1818
1	1733	1819
1	1741	1820
1	1736	1821
1	1715	1822
1	1691	1823
1	1664	1824
1	1634	1825
1	1600	1826
1	1573	1827
1	1551	1828
1	1530	1829
1	1517	1830
1	1515	1831
1	1521	1832
1	1544	1833
1	1572	1834
1	1611	1835
1	1652	1836
1	1686	1837
1	1711	1838
1	1734	1839
1	1742	1840
1	1735	1841
1	1731	1842
1	1712	1843
1	1686	1844
1	1661	1845
1	1641	1846
1	1618	1847
1	1594	1848
1	1579	1849
1	1562	1850
1	1553	1851
1	1544	1852
1	1539	1853
1	1534	1854
1	1532	1855
1	1529	1856
1	1517	1857
1	1508	1858
1	1512	1859
1	1508	1860
1	1505	1861
1	1505	1862
1	1512	1863
1	1514	1864
1	1525	1865
1	1537	1866
1	1550	1867
1	1565	1868
1	1590	1869
1	1602	1870
1	1606	1871
1	1607	1872
1	1599	1873
1	1592	1874
1	1589	1875
1	1598	1876
1	1611	1877
1	1634	1878
1	1649	1879
1	1670	1880
1	1688	1881
1	1706	1882
1	1711	1883
1	1710	1884
1	1700	1885
1	1688	1886
1	1665	1887
1	1636	1888
1	1599	1889
1	1562	1890
1	1531	1891
1	1517	1892
1	1521	1893
1	1534	1894
1	1557	1895
1	1590	1896
1	1623	1897
1	1654	1898
1	1684	1899
1	1699	1900
1	1708	1901
1	1710	1902
1	1706	1903
1	1698	1904
1	1695	1905
1	1688	1906
1	1679	1907
1	1662	1908
1	1639	1909
1	1627	1910
1	1616	1911
1	1608	1912
1	1599	1913
1	1602	1914
1	1602	1915
1	1607	1916
1	1621	1917
1	1629	1918
1	1629	1919
1	1629	1920
1	1625	1921
1	1613	1922
1	1595	1923
1	1566	1924
1	1543	1925
1	1525	1926
1	1505	1927
1	1501	1928
1	1508	1929
1	1516	1930
1	1529	1931
1	1544	1932
1	1565	1933
1	1587	1934
1	1618	1935
1	1656	1936
1	1693	1937
1	1727	1938
1	1746	1939
1	1760	1940
1	1755	1941
1	1739	1942
1	1709	1943
1	1669	1944
1	1631	1945
1	1595	1946
1	1564	1947
1	1543	1948
1	1521	1949
1	1503	1950
1	1495	1951
1	1497	1952
1	1502	1953
1	1503	1954
1	1521	1955
1	1552	1956
1	1581	1957
1	1611	1958
1	1634	1959
1	1660	1960
1	1674	1961
1	1687	1962
1	1696	1963
1	1693	1964
1	1686	1965
1	1674	1966
1	1661	1967
1	1654	1968
1	1643	1969
1	1633	1970
1	1629	1971
1	1620	1972
1	1619	1973
1	1633	1974
1	1651	1975
1	1674	1976
1	1696	1977
1	1718	1978
1	1738	1979
1	1749	1980
1	1742	1981
1	1726	1982
1	1700	1983
1	1662	1984
1	1621	1985
1	1580	1986
1	1543	1987
1	1520	1988
1	1515	1989
1	1517	1990
1	1526	1991
1	1538	1992
1	1554	1993
1	1578	1994
1	1613	1995
1	1651	1996
1	1686	1997
1	1710	1998
1	1712	1999
1	1699	2000
1	1674	2001
1	1643	2002
1	1603	2003
1	1574	2004
1	1553	2005
1	1545	2006
1	1539	2007
1	1529	2008
1	1529	2009
1	1538	2010
1	1560	2011
1	1586	2012
1	1615	2013
1	1638	2014
1	1665	2015
1	1685	2016
1	1688	2017
1	1695	2018
1	1700	2019
1	1693	2020
1	1675	2021
1	1654	2022
1	1621	2023
1	1592	2024
1	1571	2025
1	1557	2026
1	1551	2027
1	1543	2028
1	1533	2029
1	1533	2030
1	1540	2031
1	1548	2032
1	1560	2033
1	1580	2034
1	1595	2035
1	1607	2036
1	1616	2037
1	1620	2038
1	1616	2039
1	1618	2040
1	1616	2041
1	1613	2042
1	1610	2043
1	1605	2044
1	1605	2045
1	1600	2046
1	1593	2047
1	1585	2048
1	1578	2049
1	1568	2050
1	1563	2051
1	1577	2052
1	1589	2053
1	1607	2054
1	1634	2055
1	1660	2056
1	1679	2057
1	1690	2058
1	1691	2059
1	1692	2060
1	1686	2061
1	1667	2062
1	1642	2063
1	1615	2064
1	1594	2065
1	1581	2066
1	1559	2067
1	1539	2068
1	1514	2069
1	1490	2070
1	1466	2071
1	1451	2072
1	1450	2073
1	1459	2074
1	1479	2075
1	1512	2076
1	1548	2077
1	1581	2078
1	1615	2079
1	1638	2080
1	1646	2081
1	1645	2082
1	1639	2083
1	1626	2084
1	1607	2085
1	1589	2086
1	1579	2087
1	1566	2088
1	1557	2089
1	1561	2090
1	1575	2091
1	1593	2092
1	1611	2093
1	1634	2094
1	1659	2095
1	1679	2096
1	1695	2097
1	1704	2098
1	1704	2099
1	1701	2100
1	1693	2101
1	1674	2102
1	1647	2103
1	1607	2104
1	1576	2105
1	1548	2106
1	1526	2107
1	1508	2108
1	1512	2109
1	1516	2110
1	1528	2111
1	1539	2112
1	1555	2113
1	1574	2114
1	1604	2115
1	1639	2116
1	1676	2117
1	1704	2118
1	1724	2119
1	1743	2120
1	1756	2121
1	1764	2122
1	1760	2123
1	1751	2124
1	1737	2125
1	1723	2126
1	1705	2127
1	1688	2128
1	1673	2129
1	1659	2130
1	1644	2131
1	1638	2132
1	1647	2133
1	1662	2134
1	1697	2135
1	1734	2136
1	1764	2137
1	1787	2138
1	1798	2139
1	1796	2140
1	1786	2141
1	1775	2142
1	1746	2143
1	1701	2144
1	1656	2145
1	1607	2146
1	1552	2147
1	1503	2148
1	1466	2149
1	1447	2150
1	1440	2151
1	1443	2152
1	1458	2153
1	1490	2154
1	1535	2155
1	1584	2156
1	1631	2157
1	1661	2158
1	1688	2159
1	1710	2160
1	1712	2161
1	1705	2162
1	1685	2163
1	1649	2164
1	1629	2165
1	1607	2166
1	1585	2167
1	1569	2168
1	1560	2169
1	1561	2170
1	1566	2171
1	1579	2172
1	1594	2173
1	1606	2174
1	1620	2175
1	1638	2176
1	1659	2177
1	1679	2178
1	1688	2179
1	1660	2200
1	1683	2201
1	1697	2202
1	1703	2203
1	1706	2204
1	1712	2205
1	1717	2206
1	1712	2207
1	1710	2208
1	1701	2209
1	1697	2210
1	1688	2211
1	1686	2212
1	1682	2213
1	1681	2214
1	1670	2215
1	1658	2216
1	1646	2217
1	1634	2218
1	1621	2219
1	1703	2180
1	1710	2181
1	1712	2182
1	1701	2183
1	1687	2184
1	1661	2185
1	1633	2186
1	1594	2187
1	1560	2188
1	1531	2189
1	1513	2190
1	1503	2191
1	1494	2192
1	1490	2193
1	1490	2194
1	1503	2195
1	1530	2196
1	1561	2197
1	1594	2198
1	1631	2199
1	1607	2220
1	1594	2221
1	1580	2222
1	1566	2223
1	1557	2224
1	1555	2225
1	1563	2226
1	1570	2227
1	1581	2228
1	1606	2229
1	1632	2230
1	1655	2231
1	1672	2232
1	1686	2233
1	1698	2234
1	1720	2235
1	1744	2236
1	1769	2237
1	1789	2238
1	1791	2239
1	1791	2240
1	1785	2241
1	1767	2242
1	1740	2243
1	1712	2244
1	1682	2245
1	1644	2246
1	1611	2247
1	1596	2248
1	1582	2249
1	1581	2250
1	1582	2251
1	1590	2252
1	1600	2253
1	1613	2254
1	1638	2255
1	1662	2256
1	1688	2257
1	1715	2258
1	1744	2259
1	1764	2260
1	1776	2261
1	1785	2262
1	1787	2263
1	1783	2264
1	1780	2265
1	1777	2266
1	1765	2267
1	1752	2268
1	1727	2269
1	1701	2270
1	1686	2271
1	1679	2272
1	1682	2273
1	1686	2274
1	1710	2275
1	1730	2276
1	1755	2277
1	1775	2278
1	1785	2279
1	1782	2280
1	1766	2281
1	1738	2282
1	1705	2283
1	1669	2284
1	1647	2285
1	1629	2286
1	1607	2287
1	1592	2288
1	1589	2289
1	1584	2290
1	1581	2291
1	1585	2292
1	1595	2293
1	1609	2294
1	1634	2295
1	1658	2296
1	1684	2297
1	1701	2298
1	1713	2299
1	1737	2300
1	1751	2301
1	1759	2302
1	1760	2303
1	1759	2304
1	1755	2305
1	1750	2306
1	1740	2307
1	1733	2308
1	1730	2309
1	1737	2310
1	1746	2311
1	1751	2312
1	1756	2313
1	1755	2314
1	1765	2315
1	1783	2316
1	1801	2317
1	1823	2318
1	1854	2319
1	1877	2340
1	1874	2341
1	1867	2342
1	1852	2343
1	1833	2344
1	1818	2345
1	1801	2346
1	1778	2347
1	1752	2348
1	1726	2349
1	1701	2350
1	1686	2351
1	1672	2352
1	1677	2353
1	1674	2354
1	1692	2355
1	1721	2356
1	1762	2357
1	1801	2358
1	1845	2359
1	1878	2320
1	1895	2321
1	1909	2322
1	1911	2323
1	1909	2324
1	1900	2325
1	1893	2326
1	1880	2327
1	1870	2328
1	1854	2329
1	1839	2330
1	1824	2331
1	1817	2332
1	1808	2333
1	1815	2334
1	1818	2335
1	1831	2336
1	1843	2337
1	1859	2338
1	1869	2339
1	1881	2360
1	1908	2361
1	1926	2362
1	1924	2363
1	1910	2364
1	1888	2365
1	1867	2366
1	1851	2367
1	1847	2368
1	1854	2369
1	1869	2370
1	1895	2371
1	1917	2372
1	1937	2373
1	1946	2374
1	1959	2375
1	1967	2376
1	1969	2377
1	1957	2378
1	1944	2379
1	1916	2380
1	1883	2381
1	1852	2382
1	1814	2383
1	1774	2384
1	1747	2385
1	1726	2386
1	1712	2387
1	1701	2388
1	1688	2389
1	1692	2390
1	1704	2391
1	1718	2392
1	1734	2393
1	1755	2394
1	1782	2395
1	1816	2396
1	1834	2397
1	1841	2398
1	1829	2399
1	1814	2400
1	1787	2401
1	1760	2402
1	1738	2403
1	1712	2404
1	1700	2405
1	1686	2406
1	1679	2407
1	1676	2408
1	1680	2409
1	1674	2410
1	1672	2411
1	1674	2412
1	1673	2413
1	1672	2414
1	1675	2415
1	1680	2416
1	1679	2417
1	1671	2418
1	1650	2419
1	1625	2420
1	1595	2421
1	1574	2422
1	1551	2423
1	1533	2424
1	1510	2425
1	1492	2426
1	1485	2427
1	1487	2428
1	1500	2429
1	1517	2430
1	1541	2431
1	1568	2432
1	1591	2433
1	1605	2434
1	1620	2435
1	1638	2436
1	1660	2437
1	1678	2438
1	1702	2439
1	1715	2440
1	1712	2441
1	1711	2442
1	1687	2443
1	1657	2444
1	1634	2445
1	1602	2446
1	1569	2447
1	1535	2448
1	1503	2449
1	1464	2450
1	1428	2451
1	1398	2452
1	1367	2453
1	1350	2454
1	1350	2455
1	1369	2456
1	1404	2457
1	1438	2458
1	1469	2459
1	1502	2460
1	1530	2461
1	1556	2462
1	1578	2463
1	1587	2464
1	1605	2465
1	1618	2466
1	1626	2467
1	1634	2468
1	1634	2469
1	1625	2470
1	1608	2471
1	1595	2472
1	1586	2473
1	1582	2474
1	1597	2475
1	1623	2476
1	1647	2477
1	1667	2478
1	1670	2479
1	1670	2480
1	1661	2481
1	1656	2482
1	1641	2483
1	1641	2484
1	1642	2485
1	1641	2486
1	1641	2487
1	1639	2488
1	1642	2489
1	1638	2490
1	1643	2491
1	1644	2492
1	1643	2493
1	1635	2494
1	1635	2495
1	1638	2496
1	1637	2497
1	1629	2498
1	1612	2499
1	1593	2500
1	1566	2501
1	1539	2502
1	1508	2503
1	1487	2504
1	1476	2505
1	1469	2506
1	1467	2507
1	1474	2508
1	1476	2509
1	1492	2510
1	1507	2511
1	1529	2512
1	1553	2513
1	1584	2514
1	1615	2515
1	1641	2516
1	1665	2517
1	1686	2518
1	1698	2519
1	1846	2540
1	1839	2541
1	1810	2542
1	1764	2543
1	1721	2544
1	1679	2545
1	1639	2546
1	1607	2547
1	1571	2548
1	1554	2549
1	1539	2550
1	1529	2551
1	1520	2552
1	1518	2553
1	1523	2554
1	1546	2555
1	1581	2556
1	1611	2557
1	1632	2558
1	1645	2559
1	1695	2520
1	1677	2521
1	1652	2522
1	1613	2523
1	1571	2524
1	1530	2525
1	1490	2526
1	1461	2527
1	1441	2528
1	1441	2529
1	1449	2530
1	1474	2531
1	1503	2532
1	1551	2533
1	1603	2534
1	1660	2535
1	1723	2536
1	1775	2537
1	1818	2538
1	1841	2539
1	1643	2560
1	1629	2561
1	1607	2562
1	1581	2563
1	1555	2564
1	1537	2565
1	1519	2566
1	1500	2567
1	1485	2568
1	1476	2569
1	1472	2570
1	1481	2571
1	1492	2572
1	1507	2573
1	1530	2574
1	1557	2575
1	1589	2576
1	1616	2577
1	1648	2578
1	1670	2579
1	1550	2600
1	1553	2601
1	1553	2602
1	1548	2603
1	1560	2604
1	1567	2605
1	1574	2606
1	1572	2607
1	1572	2608
1	1571	2609
1	1576	2610
1	1581	2611
1	1587	2612
1	1593	2613
1	1593	2614
1	1603	2615
1	1608	2616
1	1620	2617
1	1633	2618
1	1645	2619
1	1688	2580
1	1698	2581
1	1711	2582
1	1718	2583
1	1718	2584
1	1727	2585
1	1734	2586
1	1733	2587
1	1724	2588
1	1711	2589
1	1687	2590
1	1659	2591
1	1636	2592
1	1612	2593
1	1590	2594
1	1575	2595
1	1568	2596
1	1560	2597
1	1557	2598
1	1551	2599
1	1647	2620
1	1644	2621
1	1638	2622
1	1633	2623
1	1632	2624
1	1634	2625
1	1638	2626
1	1638	2627
1	1632	2628
1	1620	2629
1	1616	2630
1	1612	2631
1	1613	2632
1	1618	2633
1	1630	2634
1	1639	2635
1	1657	2636
1	1670	2637
1	1678	2638
1	1677	2639
1	1665	2640
1	1659	2641
1	1648	2642
1	1635	2643
1	1620	2644
1	1613	2645
1	1609	2646
1	1607	2647
1	1598	2648
1	1589	2649
1	1580	2650
1	1571	2651
1	1568	2652
1	1572	2653
1	1585	2654
1	1595	2655
1	1609	2656
1	1631	2657
1	1652	2658
1	1672	2659
1	1694	2660
1	1706	2661
1	1708	2662
1	1694	2663
1	1683	2664
1	1661	2665
1	1647	2666
1	1633	2667
1	1623	2668
1	1620	2669
1	1621	2670
1	1622	2671
1	1629	2672
1	1634	2673
1	1639	2674
1	1651	2675
1	1662	2676
1	1670	2677
1	1670	2678
1	1668	2679
1	1660	2680
1	1644	2681
1	1619	2682
1	1592	2683
1	1559	2684
1	1537	2685
1	1515	2686
1	1493	2687
1	1476	2688
1	1461	2689
1	1461	2690
1	1469	2691
1	1486	2692
1	1517	2693
1	1567	2694
1	1625	2695
1	1686	2696
1	1742	2697
1	1785	2698
1	1809	2699
1	1815	2700
1	1801	2701
1	1776	2702
1	1742	2703
1	1704	2704
1	1677	2705
1	1652	2706
1	1629	2707
1	1611	2708
1	1605	2709
1	1599	2710
1	1596	2711
1	1602	2712
1	1607	2713
1	1616	2714
1	1620	2715
1	1607	2716
1	1584	2717
1	1556	2718
1	1529	2719
1	1514	2720
1	1507	2721
1	1511	2722
1	1510	2723
1	1517	2724
1	1518	2725
1	1521	2726
1	1516	2727
1	1511	2728
1	1506	2729
1	1504	2730
1	1509	2731
1	1517	2732
1	1531	2733
1	1544	2734
1	1569	2735
1	1598	2736
1	1629	2737
1	1656	2738
1	1686	2739
1	1708	2740
1	1712	2741
1	1713	2742
1	1699	2743
1	1672	2744
1	1652	2745
1	1634	2746
1	1611	2747
1	1596	2748
1	1586	2749
1	1585	2750
1	1585	2751
1	1589	2752
1	1594	2753
1	1606	2754
1	1624	2755
1	1651	2756
1	1670	2757
1	1702	2758
1	1711	2759
1	1712	2760
1	1692	2761
1	1660	2762
1	1620	2763
1	1573	2764
1	1541	2765
1	1507	2766
1	1475	2767
1	1448	2768
1	1438	2769
1	1436	2770
1	1446	2771
1	1464	2772
1	1490	2773
1	1521	2774
1	1557	2775
1	1599	2776
1	1643	2777
1	1686	2778
1	1715	2779
1	1744	2780
1	1760	2781
1	1764	2782
1	1754	2783
1	1742	2784
1	1724	2785
1	1706	2786
1	1691	2787
1	1683	2788
1	1683	2789
1	1688	2790
1	1698	2791
1	1703	2792
1	1709	2793
1	1710	2794
1	1717	2795
1	1721	2796
1	1722	2797
1	1728	2798
1	1738	2799
1	1738	2800
1	1728	2801
1	1706	2802
1	1679	2803
1	1647	2804
1	1626	2805
1	1607	2806
1	1593	2807
1	1581	2808
1	1569	2809
1	1559	2810
1	1560	2811
1	1578	2812
1	1611	2813
1	1662	2814
1	1713	2815
1	1764	2816
1	1809	2817
1	1827	2818
1	1826	2819
1	1801	2820
1	1764	2821
1	1724	2822
1	1682	2823
1	1644	2824
1	1621	2825
1	1605	2826
1	1590	2827
1	1576	2828
1	1566	2829
1	1555	2830
1	1548	2831
1	1539	2832
1	1536	2833
1	1539	2834
1	1555	2835
1	1579	2836
1	1609	2837
1	1647	2838
1	1668	2839
1	1677	2840
1	1682	2841
1	1683	2842
1	1672	2843
1	1661	2844
1	1659	2845
1	1657	2846
1	1657	2847
1	1667	2848
1	1667	2849
1	1672	2850
1	1683	2851
1	1695	2852
1	1708	2853
1	1721	2854
1	1730	2855
1	1734	2856
1	1726	2857
1	1712	2858
1	1697	2859
1	1673	2860
1	1649	2861
1	1628	2862
1	1606	2863
1	1592	2864
1	1589	2865
1	1585	2866
1	1584	2867
1	1581	2868
1	1580	2869
1	1592	2870
1	1616	2871
1	1645	2872
1	1669	2873
1	1704	2874
1	1738	2875
1	1778	2876
1	1826	2877
1	1861	2878
1	1893	2879
1	1751	2900
1	1757	2901
1	1751	2902
1	1738	2903
1	1733	2904
1	1720	2905
1	1710	2906
1	1699	2907
1	1692	2908
1	1688	2909
1	1690	2910
1	1695	2911
1	1705	2912
1	1718	2913
1	1738	2914
1	1764	2915
1	1788	2916
1	1795	2917
1	1790	2918
1	1777	2919
1	1921	2880
1	1940	2881
1	1948	2882
1	1944	2883
1	1916	2884
1	1885	2885
1	1838	2886
1	1780	2887
1	1726	2888
1	1686	2889
1	1643	2890
1	1611	2891
1	1593	2892
1	1584	2893
1	1593	2894
1	1616	2895
1	1652	2896
1	1688	2897
1	1719	2898
1	1738	2899
1	1755	2920
1	1733	2921
1	1711	2922
1	1697	2923
1	1687	2924
1	1685	2925
1	1683	2926
1	1675	2927
1	1672	2928
1	1664	2929
1	1665	2930
1	1670	2931
1	1682	2932
1	1691	2933
1	1710	2934
1	1729	2935
1	1750	2936
1	1769	2937
1	1790	2938
1	1794	2939
1	1796	2940
1	1796	2941
1	1793	2942
1	1787	2943
1	1783	2944
1	1788	2945
1	1791	2946
1	1793	2947
1	1796	2948
1	1802	2949
1	1798	2950
1	1800	2951
1	1801	2952
1	1809	2953
1	1816	2954
1	1821	2955
1	1823	2956
1	1824	2957
1	1823	2958
1	1813	2959
1	1795	2960
1	1782	2961
1	1769	2962
1	1756	2963
1	1746	2964
1	1742	2965
1	1738	2966
1	1738	2967
1	1746	2968
1	1751	2969
1	1754	2970
1	1755	2971
1	1760	2972
1	1779	2973
1	1807	2974
1	1841	2975
1	1872	2976
1	1908	2977
1	1935	2978
1	1957	2979
1	1956	2980
1	1949	2981
1	1931	2982
1	1906	2983
1	1880	2984
1	1857	2985
1	1839	2986
1	1827	2987
1	1820	2988
1	1809	2989
1	1800	2990
1	1793	2991
1	1792	2992
1	1791	2993
1	1802	2994
1	1818	2995
1	1835	2996
1	1858	2997
1	1886	2998
1	1921	2999
1	1955	3000
1	1989	3001
1	2013	3002
1	2027	3003
1	2026	3004
1	2025	3005
1	2015	3006
1	2001	3007
1	1985	3008
1	1974	3009
1	1953	3010
1	1926	3011
1	1899	3012
1	1868	3013
1	1845	3014
1	1832	3015
1	1828	3016
1	1843	3017
1	1859	3018
1	1875	3019
1	1903	3020
1	1935	3021
1	1968	3022
1	1993	3023
1	2024	3024
1	2039	3025
1	2048	3026
1	2040	3027
1	2026	3028
1	2005	3029
1	1986	3030
1	1963	3031
1	1940	3032
1	1917	3033
1	1898	3034
1	1894	3035
1	1888	3036
1	1882	3037
1	1869	3038
1	1856	3039
1	1834	3040
1	1803	3041
1	1791	3042
1	1767	3043
1	1751	3044
1	1746	3045
1	1741	3046
1	1744	3047
1	1747	3048
1	1753	3049
1	1764	3050
1	1770	3051
1	1779	3052
1	1790	3053
1	1813	3054
1	1828	3055
1	1843	3056
1	1856	3057
1	1868	3058
1	1876	3059
1	1880	3060
1	1880	3061
1	1874	3062
1	1862	3063
1	1839	3064
1	1817	3065
1	1782	3066
1	1757	3067
1	1738	3068
1	1724	3069
1	1709	3070
1	1691	3071
1	1675	3072
1	1667	3073
1	1665	3074
1	1677	3075
1	1694	3076
1	1712	3077
1	1725	3078
1	1723	3079
1	1719	3080
1	1712	3081
1	1703	3082
1	1692	3083
1	1686	3084
1	1679	3085
1	1665	3086
1	1654	3087
1	1631	3088
1	1610	3089
1	1597	3090
1	1586	3091
1	1581	3092
1	1582	3093
1	1593	3094
1	1611	3095
1	1634	3096
1	1645	3097
1	1638	3098
1	1629	3099
1	1606	3100
1	1581	3101
1	1561	3102
1	1548	3103
1	1544	3104
1	1544	3105
1	1539	3106
1	1529	3107
1	1527	3108
1	1530	3109
1	1547	3110
1	1563	3111
1	1574	3112
1	1581	3113
1	1599	3114
1	1616	3115
1	1638	3116
1	1659	3117
1	1672	3118
1	1677	3119
1	1685	3140
1	1672	3141
1	1651	3142
1	1621	3143
1	1592	3144
1	1569	3145
1	1551	3146
1	1531	3147
1	1526	3148
1	1524	3149
1	1529	3150
1	1537	3151
1	1551	3152
1	1572	3153
1	1595	3154
1	1622	3155
1	1648	3156
1	1664	3157
1	1674	3158
1	1692	3159
1	1665	3120
1	1647	3121
1	1625	3122
1	1597	3123
1	1570	3124
1	1553	3125
1	1530	3126
1	1512	3127
1	1503	3128
1	1506	3129
1	1512	3130
1	1520	3131
1	1526	3132
1	1535	3133
1	1556	3134
1	1594	3135
1	1633	3136
1	1658	3137
1	1674	3138
1	1684	3139
1	1710	3160
1	1726	3161
1	1739	3162
1	1744	3163
1	1744	3164
1	1739	3165
1	1724	3166
1	1703	3167
1	1682	3168
1	1648	3169
1	1622	3170
1	1592	3171
1	1562	3172
1	1530	3173
1	1521	3174
1	1517	3175
1	1526	3176
1	1539	3177
1	1555	3178
1	1577	3179
1	1592	3180
1	1602	3181
1	1605	3182
1	1592	3183
1	1563	3184
1	1534	3185
1	1501	3186
1	1471	3187
1	1445	3188
1	1435	3189
1	1424	3190
1	1420	3191
1	1418	3192
1	1431	3193
1	1458	3194
1	1494	3195
1	1531	3196
1	1566	3197
1	1582	3198
1	1581	3199
1	1577	3200
1	1569	3201
1	1564	3202
1	1557	3203
1	1555	3204
1	1545	3205
1	1534	3206
1	1526	3207
1	1517	3208
1	1510	3209
1	1516	3210
1	1528	3211
1	1547	3212
1	1564	3213
1	1581	3214
1	1600	3215
1	1620	3216
1	1639	3217
1	1658	3218
1	1683	3219
1	1691	3220
1	1692	3221
1	1686	3222
1	1661	3223
1	1621	3224
1	1580	3225
1	1533	3226
1	1497	3227
1	1463	3228
1	1435	3229
1	1410	3230
1	1396	3231
1	1384	3232
1	1392	3233
1	1414	3234
1	1442	3235
1	1484	3236
1	1528	3237
1	1564	3238
1	1590	3239
1	1605	3240
1	1616	3241
1	1616	3242
1	1607	3243
1	1592	3244
1	1580	3245
1	1561	3246
1	1547	3247
1	1533	3248
1	1512	3249
1	1497	3250
1	1485	3251
1	1476	3252
1	1474	3253
1	1476	3254
1	1478	3255
1	1481	3256
1	1492	3257
1	1503	3258
1	1510	3259
1	1510	3260
1	1503	3261
1	1490	3262
1	1468	3263
1	1450	3264
1	1437	3265
1	1432	3266
1	1440	3267
1	1454	3268
1	1485	3269
1	1517	3270
1	1554	3271
1	1585	3272
1	1608	3273
1	1626	3274
1	1639	3275
1	1655	3276
1	1664	3277
1	1669	3278
1	1664	3279
1	1644	3280
1	1613	3281
1	1577	3282
1	1536	3283
1	1500	3284
1	1466	3285
1	1429	3286
1	1397	3287
1	1362	3288
1	1345	3289
1	1353	3290
1	1384	3291
1	1441	3292
1	1494	3293
1	1557	3294
1	1623	3295
1	1686	3296
1	1738	3297
1	1762	3298
1	1765	3299
1	1751	3300
1	1727	3301
1	1694	3302
1	1656	3303
1	1609	3304
1	1567	3305
1	1528	3306
1	1489	3307
1	1455	3308
1	1443	3309
1	1437	3310
1	1447	3311
1	1472	3312
1	1503	3313
1	1541	3314
1	1579	3315
1	1608	3316
1	1631	3317
1	1642	3318
1	1644	3319
1	1616	3340
1	1592	3341
1	1544	3342
1	1499	3343
1	1465	3344
1	1436	3345
1	1418	3346
1	1402	3347
1	1384	3348
1	1372	3349
1	1362	3350
1	1356	3351
1	1359	3352
1	1371	3353
1	1395	3354
1	1422	3355
1	1461	3356
1	1504	3357
1	1556	3358
1	1600	3359
1	1643	3320
1	1638	3321
1	1633	3322
1	1628	3323
1	1631	3324
1	1626	3325
1	1607	3326
1	1579	3327
1	1549	3328
1	1529	3329
1	1527	3330
1	1533	3331
1	1553	3332
1	1567	3333
1	1582	3334
1	1606	3335
1	1625	3336
1	1634	3337
1	1634	3338
1	1639	3339
1	1639	3360
1	1674	3361
1	1696	3362
1	1698	3363
1	1682	3364
1	1665	3365
1	1643	3366
1	1607	3367
1	1572	3368
1	1539	3369
1	1504	3370
1	1481	3371
1	1463	3372
1	1455	3373
1	1461	3374
1	1477	3375
1	1500	3376
1	1521	3377
1	1535	3378
1	1546	3379
1	1554	3380
1	1553	3381
1	1551	3382
1	1552	3383
1	1556	3384
1	1560	3385
1	1557	3386
1	1557	3387
1	1557	3388
1	1557	3389
1	1556	3390
1	1555	3391
1	1553	3392
1	1544	3393
1	1537	3394
1	1542	3395
1	1551	3396
1	1556	3397
1	1566	3398
1	1580	3399
1	1581	3400
1	1580	3401
1	1573	3402
1	1557	3403
1	1546	3404
1	1539	3405
1	1528	3406
1	1526	3407
1	1536	3408
1	1557	3409
1	1577	3410
1	1589	3411
1	1596	3412
1	1607	3413
1	1629	3414
1	1642	3415
1	1652	3416
1	1662	3417
1	1675	3418
1	1684	3419
1	1686	3420
1	1679	3421
1	1665	3422
1	1656	3423
1	1641	3424
1	1634	3425
1	1621	3426
1	1613	3427
1	1604	3428
1	1600	3429
1	1593	3430
1	1591	3431
1	1582	3432
1	1567	3433
1	1555	3434
1	1542	3435
1	1530	3436
1	1517	3437
1	1503	3438
1	1487	3439
1	1475	3440
1	1454	3441
1	1438	3442
1	1424	3443
1	1423	3444
1	1427	3445
1	1428	3446
1	1434	3447
1	1449	3448
1	1466	3449
1	1490	3450
1	1526	3451
1	1567	3452
1	1615	3453
1	1669	3454
1	1711	3455
1	1756	3456
1	1791	3457
1	1817	3458
1	1839	3459
1	1841	3460
1	1836	3461
1	1819	3462
1	1791	3463
1	1762	3464
1	1723	3465
1	1680	3466
1	1642	3467
1	1608	3468
1	1581	3469
1	1566	3470
1	1554	3471
1	1555	3472
1	1569	3473
1	1602	3474
1	1634	3475
1	1661	3476
1	1686	3477
1	1699	3478
1	1700	3479
1	1692	3480
1	1680	3481
1	1660	3482
1	1642	3483
1	1625	3484
1	1615	3485
1	1607	3486
1	1598	3487
1	1589	3488
1	1581	3489
1	1569	3490
1	1557	3491
1	1553	3492
1	1549	3493
1	1548	3494
1	1548	3495
1	1553	3496
1	1546	3497
1	1541	3498
1	1535	3499
1	1529	3500
1	1529	3501
1	1529	3502
1	1538	3503
1	1559	3504
1	1579	3505
1	1594	3506
1	1610	3507
1	1625	3508
1	1638	3509
1	1646	3510
1	1643	3511
1	1632	3512
1	1613	3513
1	1605	3514
1	1602	3515
1	1607	3516
1	1608	3517
1	1619	3518
1	1634	3519
1	1634	3520
1	1638	3521
1	1636	3522
1	1633	3523
1	1630	3524
1	1625	3525
1	1621	3526
1	1620	3527
1	1622	3528
1	1624	3529
1	1634	3530
1	1646	3531
1	1660	3532
1	1676	3533
1	1701	3534
1	1718	3535
1	1737	3536
1	1743	3537
1	1750	3538
1	1754	3539
1	1762	3540
1	1772	3541
1	1770	3542
1	1754	3543
1	1737	3544
1	1710	3545
1	1676	3546
1	1645	3547
1	1616	3548
1	1605	3549
1	1596	3550
1	1598	3551
1	1608	3552
1	1629	3553
1	1658	3554
1	1686	3555
1	1714	3556
1	1738	3557
1	1763	3558
1	1779	3559
1	1789	3560
1	1795	3561
1	1793	3562
1	1783	3563
1	1764	3564
1	1739	3565
1	1701	3566
1	1672	3567
1	1643	3568
1	1621	3569
1	1607	3570
1	1602	3571
1	1602	3572
1	1602	3573
1	1607	3574
1	1616	3575
1	1638	3576
1	1660	3577
1	1672	3578
1	1686	3579
1	1710	3600
1	1712	3601
1	1709	3602
1	1697	3603
1	1686	3604
1	1679	3605
1	1671	3606
1	1660	3607
1	1647	3608
1	1644	3609
1	1641	3610
1	1639	3611
1	1647	3612
1	1660	3613
1	1683	3614
1	1711	3615
1	1731	3616
1	1746	3617
1	1757	3618
1	1767	3619
1	1686	3580
1	1686	3581
1	1684	3582
1	1681	3583
1	1686	3584
1	1690	3585
1	1692	3586
1	1686	3587
1	1686	3588
1	1681	3589
1	1681	3590
1	1674	3591
1	1665	3592
1	1660	3593
1	1661	3594
1	1672	3595
1	1686	3596
1	1691	3597
1	1701	3598
1	1708	3599
1	1780	3620
1	1793	3621
1	1811	3622
1	1817	3623
1	1831	3624
1	1843	3625
1	1851	3626
1	1856	3627
1	1856	3628
1	1849	3629
1	1836	3630
1	1817	3631
1	1800	3632
1	1789	3633
1	1775	3634
1	1769	3635
1	1773	3636
1	1780	3637
1	1787	3638
1	1796	3639
1	1798	3640
1	1801	3641
1	1793	3642
1	1791	3643
1	1783	3644
1	1778	3645
1	1772	3646
1	1770	3647
1	1769	3648
1	1770	3649
1	1774	3650
1	1778	3651
1	1782	3652
1	1789	3653
1	1801	3654
1	1817	3655
1	1818	3656
1	1812	3657
1	1801	3658
1	1800	3659
1	1800	3660
1	1801	3661
1	1800	3662
1	1800	3663
1	1791	3664
1	1788	3665
1	1772	3666
1	1756	3667
1	1744	3668
1	1741	3669
1	1760	3670
1	1777	3671
1	1800	3672
1	1832	3673
1	1862	3674
1	1888	3675
1	1904	3676
1	1913	3677
1	1917	3678
1	1906	3679
1	1891	3680
1	1874	3681
1	1859	3682
1	1843	3683
1	1832	3684
1	1817	3685
1	1801	3686
1	1792	3687
1	1796	3688
1	1798	3689
1	1812	3690
1	1833	3691
1	1863	3692
1	1897	3693
1	1932	3694
1	1962	3695
1	1985	3696
1	1995	3697
1	1995	3698
1	1998	3699
1	1978	3700
1	1953	3701
1	1924	3702
1	1904	3703
1	1894	3704
1	1881	3705
1	1869	3706
1	1856	3707
1	1843	3708
1	1826	3709
1	1817	3710
1	1814	3711
1	1802	3712
1	1795	3713
1	1802	3714
1	1814	3715
1	1823	3716
1	1836	3717
1	1843	3718
1	1849	3719
1	1844	3720
1	1831	3721
1	1814	3722
1	1793	3723
1	1778	3724
1	1769	3725
1	1757	3726
1	1744	3727
1	1737	3728
1	1739	3729
1	1746	3730
1	1759	3731
1	1773	3732
1	1793	3733
1	1827	3734
1	1858	3735
1	1891	3736
1	1908	3737
1	1911	3738
1	1898	3739
1	1887	3740
1	1866	3741
1	1841	3742
1	1808	3743
1	1779	3744
1	1757	3745
1	1737	3746
1	1723	3747
1	1703	3748
1	1682	3749
1	1660	3750
1	1646	3751
1	1635	3752
1	1634	3753
1	1633	3754
1	1634	3755
1	1649	3756
1	1661	3757
1	1669	3758
1	1672	3759
1	1673	3760
1	1665	3761
1	1651	3762
1	1638	3763
1	1622	3764
1	1598	3765
1	1574	3766
1	1553	3767
1	1530	3768
1	1512	3769
1	1508	3770
1	1512	3771
1	1524	3772
1	1536	3773
1	1566	3774
1	1592	3775
1	1621	3776
1	1643	3777
1	1660	3778
1	1667	3779
1	1669	3780
1	1667	3781
1	1659	3782
1	1647	3783
1	1633	3784
1	1625	3785
1	1607	3786
1	1590	3787
1	1572	3788
1	1557	3789
1	1543	3790
1	1543	3791
1	1554	3792
1	1563	3793
1	1581	3794
1	1595	3795
1	1609	3796
1	1616	3797
1	1629	3798
1	1635	3799
1	1638	3800
1	1634	3801
1	1629	3802
1	1622	3803
1	1629	3804
1	1631	3805
1	1630	3806
1	1633	3807
1	1634	3808
1	1647	3809
1	1668	3810
1	1693	3811
1	1719	3812
1	1744	3813
1	1764	3814
1	1785	3815
1	1791	3816
1	1791	3817
1	1773	3818
1	1757	3819
1	1628	3840
1	1629	3841
1	1631	3842
1	1641	3843
1	1661	3844
1	1686	3845
1	1701	3846
1	1713	3847
1	1727	3848
1	1738	3849
1	1751	3850
1	1742	3851
1	1737	3852
1	1727	3853
1	1721	3854
1	1716	3855
1	1713	3856
1	1710	3857
1	1695	3858
1	1671	3859
1	1726	3820
1	1700	3821
1	1668	3822
1	1641	3823
1	1613	3824
1	1594	3825
1	1580	3826
1	1566	3827
1	1560	3828
1	1556	3829
1	1558	3830
1	1569	3831
1	1576	3832
1	1580	3833
1	1592	3834
1	1602	3835
1	1612	3836
1	1621	3837
1	1629	3838
1	1631	3839
1	1654	3860
1	1638	3861
1	1622	3862
1	1607	3863
1	1596	3864
1	1577	3865
1	1550	3866
1	1529	3867
1	1516	3868
1	1512	3869
1	1512	3870
1	1515	3871
1	1523	3872
1	1533	3873
1	1555	3874
1	1584	3875
1	1621	3876
1	1656	3877
1	1686	3878
1	1714	3879
1	1736	3880
1	1746	3881
1	1747	3882
1	1740	3883
1	1729	3884
1	1713	3885
1	1692	3886
1	1671	3887
1	1645	3888
1	1616	3889
1	1602	3890
1	1592	3891
1	1590	3892
1	1589	3893
1	1606	3894
1	1618	3895
1	1634	3896
1	1635	3897
1	1651	3898
1	1660	3899
1	1670	3900
1	1679	3901
1	1684	3902
1	1685	3903
1	1684	3904
1	1686	3905
1	1690	3906
1	1699	3907
1	1706	3908
1	1708	3909
1	1695	3910
1	1678	3911
1	1656	3912
1	1628	3913
1	1607	3914
1	1594	3915
1	1585	3916
1	1581	3917
1	1581	3918
1	1581	3919
1	1738	3940
1	1733	3941
1	1708	3942
1	1686	3943
1	1647	3944
1	1623	3945
1	1595	3946
1	1572	3947
1	1555	3948
1	1555	3949
1	1570	3950
1	1598	3951
1	1634	3952
1	1686	3953
1	1738	3954
1	1777	3955
1	1793	3956
1	1798	3957
1	1793	3958
1	1777	3959
1	1757	3960
1	1739	3961
1	1723	3962
1	1701	3963
1	1686	3964
1	1686	3965
1	1688	3966
1	1690	3967
1	1685	3968
1	1680	3969
1	1665	3970
1	1660	3971
1	1657	3972
1	1660	3973
1	1671	3974
1	1688	3975
1	1712	3976
1	1734	3977
1	1739	3978
1	1728	3979
1	1585	3920
1	1594	3921
1	1599	3922
1	1606	3923
1	1616	3924
1	1625	3925
1	1634	3926
1	1647	3927
1	1660	3928
1	1664	3929
1	1671	3930
1	1675	3931
1	1685	3932
1	1684	3933
1	1683	3934
1	1687	3935
1	1699	3936
1	1712	3937
1	1723	3938
1	1737	3939
1	1715	3980
1	1703	3981
1	1691	3982
1	1683	3983
1	1683	3984
1	1677	3985
1	1667	3986
1	1664	3987
1	1670	3988
1	1682	3989
1	1692	3990
1	1708	3991
1	1723	3992
1	1733	3993
1	1737	3994
1	1747	3995
1	1760	3996
1	1769	3997
1	1769	3998
1	1764	3999
1	1741	4000
1	1718	4001
1	1698	4002
1	1674	4003
1	1657	4004
1	1638	4005
1	1622	4006
1	1600	4006
1	1581	4008
1	1553	4009
1	1542	4010
1	1539	4011
1	1546	4012
1	1563	4013
1	1592	4014
1	1615	4014
1	1638	4016
1	1660	4017
1	1677	4018
1	1698	4019
1	1724	4020
1	1742	4021
1	1757	4022
1	1767	4022
1	1778	4024
1	1781	4025
1	1775	4026
1	1760	4027
1	1731	4028
1	1707	4029
1	1670	4030
1	1644	4030
1	1628	4032
1	1619	4033
1	1625	4034
1	1634	4035
1	1652	4036
1	1671	4037
1	1690	4038
1	1699	4038
1	1706	4040
1	1712	4041
1	1712	4042
1	1705	4043
1	1698	4044
1	1688	4045
1	1678	4046
1	1675	4046
1	1671	4048
1	1665	4049
1	1660	4050
1	1656	4051
1	1652	4052
1	1647	4053
1	1643	4054
1	1643	4054
1	1651	4056
1	1657	4057
1	1662	4058
1	1683	4059
1	1843	4080
1	1841	4081
1	1832	4082
1	1815	4083
1	1773	4084
1	1747	4085
1	1713	4086
1	1685	4086
1	1660	4088
1	1645	4089
1	1634	4090
1	1628	4091
1	1631	4092
1	1643	4093
1	1665	4094
1	1688	4094
1	1708	4096
1	1709	4097
1	1692	4098
1	1664	4099
1	1688	4060
1	1690	4061
1	1686	4062
1	1677	4062
1	1668	4064
1	1656	4065
1	1646	4066
1	1638	4067
1	1639	4068
1	1642	4069
1	1647	4070
1	1654	4070
1	1659	4072
1	1669	4073
1	1698	4074
1	1728	4075
1	1762	4076
1	1791	4077
1	1819	4078
1	1837	4078
1	1641	4100
1	1612	4101
1	1582	4102
1	1558	4103
1	1561	4104
1	1566	4105
1	1581	4106
1	1598	4107
1	1616	4108
1	1634	4109
1	1649	4110
1	1661	4111
1	1667	4112
1	1671	4113
1	1670	4114
1	1671	4115
1	1678	4116
1	1687	4117
1	1698	4118
1	1708	4119
1	1703	4120
1	1698	4121
1	1697	4122
1	1703	4123
1	1719	4124
1	1738	4125
1	1751	4126
1	1759	4127
1	1758	4128
1	1752	4129
1	1750	4130
1	1754	4131
1	1759	4132
1	1764	4133
1	1780	4134
1	1791	4135
1	1800	4136
1	1803	4137
1	1801	4138
1	1795	4139
1	1800	4140
1	1815	4141
1	1819	4142
1	1823	4143
1	1822	4144
1	1817	4145
1	1801	4146
1	1791	4147
1	1773	4148
1	1746	4149
1	1715	4150
1	1688	4151
1	1661	4152
1	1644	4153
1	1626	4154
1	1615	4155
1	1611	4156
1	1619	4157
1	1631	4158
1	1644	4159
1	1652	4160
1	1663	4161
1	1661	4162
1	1660	4163
1	1660	4164
1	1660	4165
1	1651	4166
1	1638	4167
1	1626	4168
1	1613	4169
1	1608	4170
1	1612	4171
1	1623	4172
1	1643	4173
1	1669	4174
1	1693	4175
1	1724	4176
1	1749	4177
1	1765	4178
1	1782	4179
1	1783	4180
1	1783	4181
1	1769	4182
1	1752	4183
1	1736	4184
1	1714	4185
1	1692	4186
1	1665	4187
1	1648	4188
1	1634	4189
1	1634	4190
1	1639	4191
1	1649	4192
1	1669	4193
1	1701	4194
1	1738	4195
1	1777	4196
1	1813	4197
1	1835	4198
1	1851	4199
1	1860	4200
1	1856	4201
1	1843	4202
1	1822	4203
1	1791	4204
1	1769	4205
1	1747	4206
1	1729	4207
1	1724	4208
1	1726	4209
1	1728	4210
1	1727	4211
1	1730	4212
1	1738	4213
1	1748	4214
1	1755	4215
1	1756	4216
1	1751	4217
1	1742	4218
1	1726	4219
1	1715	4220
1	1710	4221
1	1705	4222
1	1703	4223
1	1712	4224
1	1712	4225
1	1718	4226
1	1733	4227
1	1747	4228
1	1762	4229
1	1783	4230
1	1796	4231
1	1813	4232
1	1817	4233
1	1817	4234
1	1821	4235
1	1825	4236
1	1824	4237
1	1817	4238
1	1811	4239
1	1700	4260
1	1680	4261
1	1659	4262
1	1636	4263
1	1611	4264
1	1607	4265
1	1612	4266
1	1634	4267
1	1662	4268
1	1701	4269
1	1737	4270
1	1772	4271
1	1811	4272
1	1843	4273
1	1869	4274
1	1895	4275
1	1916	4276
1	1931	4277
1	1934	4278
1	1917	4279
1	1786	4240
1	1759	4241
1	1728	4242
1	1713	4243
1	1701	4244
1	1699	4245
1	1708	4246
1	1718	4247
1	1735	4248
1	1743	4249
1	1750	4250
1	1751	4251
1	1746	4252
1	1741	4253
1	1747	4254
1	1751	4255
1	1752	4256
1	1750	4257
1	1742	4258
1	1726	4259
1	1901	4280
1	1882	4281
1	1858	4282
1	1832	4283
1	1817	4284
1	1787	4285
1	1764	4286
1	1753	4287
1	1750	4288
1	1752	4289
1	1764	4290
1	1783	4291
1	1803	4292
1	1830	4293
1	1847	4294
1	1861	4295
1	1867	4296
1	1861	4297
1	1852	4298
1	1848	4299
1	1839	4300
1	1818	4301
1	1782	4302
1	1742	4303
1	1714	4304
1	1699	4305
1	1687	4306
1	1679	4307
1	1674	4308
1	1670	4309
1	1677	4310
1	1687	4311
1	1701	4312
1	1724	4313
1	1762	4314
1	1798	4315
1	1836	4316
1	1860	4317
1	1885	4318
1	1904	4319
1	1921	4320
1	1922	4321
1	1909	4322
1	1888	4323
1	1862	4324
1	1843	4325
1	1835	4326
1	1836	4327
1	1842	4328
1	1855	4329
1	1867	4330
1	1877	4331
1	1896	4332
1	1919	4333
1	1947	4334
1	1971	4335
1	1988	4336
1	1998	4337
1	1998	4338
1	1988	4339
1	1976	4340
1	1962	4341
1	1937	4342
1	1919	4343
1	1909	4344
1	1917	4345
1	1922	4346
1	1935	4347
1	1943	4348
1	1929	4349
1	1920	4350
1	1910	4351
1	1908	4352
1	1909	4353
1	1913	4354
1	1914	4355
1	1922	4356
1	1929	4357
1	1935	4358
1	1935	4359
1	1926	4360
1	1911	4361
1	1895	4362
1	1882	4363
1	1868	4364
1	1852	4365
1	1842	4366
1	1836	4367
1	1832	4368
1	1828	4369
1	1829	4370
1	1832	4371
1	1841	4372
1	1856	4373
1	1882	4374
1	1904	4375
1	1918	4376
1	1927	4377
1	1940	4378
1	1947	4379
1	1857	4400
1	1849	4401
1	1831	4402
1	1803	4403
1	1791	4404
1	1780	4405
1	1767	4406
1	1752	4407
1	1736	4408
1	1720	4409
1	1711	4410
1	1710	4411
1	1711	4412
1	1712	4413
1	1718	4414
1	1727	4415
1	1733	4416
1	1726	4417
1	1715	4418
1	1706	4419
1	1948	4380
1	1940	4381
1	1922	4382
1	1906	4383
1	1895	4384
1	1890	4385
1	1893	4386
1	1895	4387
1	1901	4388
1	1913	4389
1	1917	4390
1	1917	4391
1	1909	4392
1	1898	4393
1	1890	4394
1	1885	4395
1	1884	4396
1	1884	4397
1	1878	4398
1	1865	4399
1	1686	4420
1	1667	4421
1	1652	4422
1	1645	4423
1	1651	4424
1	1658	4425
1	1665	4426
1	1673	4427
1	1675	4428
1	1672	4429
1	1669	4430
1	1667	4431
1	1669	4432
1	1673	4433
1	1683	4434
1	1681	4435
1	1674	4436
1	1661	4437
1	1652	4438
1	1636	4439
1	1629	4440
1	1623	4441
1	1618	4442
1	1616	4443
1	1620	4444
1	1629	4445
1	1638	4446
1	1647	4447
1	1647	4448
1	1646	4449
1	1634	4450
1	1629	4451
1	1632	4452
1	1641	4453
1	1647	4454
1	1646	4455
1	1642	4456
1	1634	4457
1	1624	4458
1	1609	4459
1	1605	4460
1	1597	4461
1	1586	4462
1	1578	4463
1	1581	4464
1	1581	4465
1	1592	4466
1	1607	4467
1	1622	4468
1	1639	4469
1	1656	4470
1	1669	4471
1	1678	4472
1	1683	4473
1	1680	4474
1	1683	4475
1	1686	4476
1	1686	4477
1	1675	4478
1	1670	4479
1	1661	4480
1	1657	4481
1	1650	4482
1	1646	4483
1	1646	4484
1	1639	4485
1	1631	4486
1	1608	4487
1	1592	4488
1	1568	4489
1	1555	4490
1	1543	4491
1	1543	4492
1	1557	4493
1	1589	4494
1	1618	4495
1	1644	4496
1	1660	4497
1	1674	4498
1	1681	4499
1	1678	4500
1	1672	4501
1	1661	4502
1	1652	4503
1	1636	4504
1	1629	4505
1	1622	4506
1	1616	4507
1	1607	4508
1	1610	4509
1	1607	4510
1	1607	4511
1	1609	4512
1	1616	4513
1	1625	4514
1	1634	4515
1	1645	4516
1	1659	4517
1	1664	4518
1	1665	4519
1	1629	4540
1	1626	4541
1	1621	4542
1	1615	4543
1	1607	4544
1	1589	4545
1	1577	4546
1	1559	4547
1	1547	4548
1	1537	4549
1	1532	4550
1	1536	4551
1	1549	4552
1	1570	4553
1	1594	4554
1	1620	4555
1	1643	4556
1	1656	4557
1	1663	4558
1	1675	4559
1	1674	4520
1	1686	4521
1	1693	4522
1	1697	4523
1	1706	4524
1	1702	4525
1	1699	4526
1	1694	4527
1	1686	4528
1	1678	4529
1	1669	4530
1	1660	4531
1	1654	4532
1	1654	4533
1	1651	4534
1	1654	4535
1	1654	4536
1	1647	4537
1	1635	4538
1	1634	4539
1	1677	4560
1	1674	4561
1	1664	4562
1	1648	4563
1	1616	4564
1	1594	4565
1	1566	4566
1	1543	4567
1	1538	4568
1	1546	4569
1	1558	4570
1	1571	4571
1	1586	4572
1	1608	4573
1	1634	4574
1	1660	4575
1	1697	4576
1	1731	4577
1	1760	4578
1	1764	4579
1	1762	4580
1	1742	4581
1	1714	4582
1	1688	4583
1	1674	4584
1	1657	4585
1	1642	4586
1	1631	4587
1	1625	4588
1	1632	4589
1	1638	4590
1	1652	4591
1	1665	4592
1	1685	4593
1	1705	4594
1	1723	4595
1	1737	4596
1	1741	4597
1	1741	4598
1	1739	4599
1	1729	4600
1	1715	4601
1	1697	4602
1	1675	4603
1	1660	4604
1	1641	4605
1	1621	4606
1	1602	4607
1	1581	4608
1	1567	4609
1	1562	4610
1	1561	4611
1	1559	4612
1	1568	4613
1	1581	4614
1	1594	4615
1	1607	4616
1	1620	4617
1	1631	4618
1	1637	4619
1	1636	4620
1	1634	4621
1	1622	4622
1	1620	4623
1	1621	4624
1	1631	4625
1	1644	4626
1	1660	4627
1	1677	4628
1	1698	4629
1	1712	4630
1	1712	4631
1	1717	4632
1	1728	4633
1	1740	4634
1	1753	4635
1	1764	4636
1	1782	4637
1	1791	4638
1	1786	4639
1	1778	4640
1	1761	4641
1	1738	4642
1	1714	4643
1	1696	4644
1	1670	4645
1	1638	4646
1	1616	4647
1	1603	4648
1	1592	4649
1	1597	4650
1	1615	4651
1	1636	4652
1	1670	4653
1	1705	4654
1	1737	4655
1	1756	4656
1	1760	4657
1	1749	4658
1	1734	4659
1	1684	4680
1	1698	4681
1	1703	4682
1	1701	4683
1	1687	4684
1	1677	4685
1	1661	4686
1	1647	4687
1	1643	4688
1	1634	4689
1	1629	4690
1	1625	4691
1	1622	4692
1	1629	4693
1	1638	4694
1	1657	4695
1	1675	4696
1	1692	4697
1	1703	4698
1	1705	4699
1	1710	4660
1	1683	4661
1	1651	4662
1	1622	4663
1	1595	4664
1	1573	4665
1	1554	4666
1	1542	4667
1	1537	4668
1	1531	4669
1	1531	4670
1	1533	4671
1	1530	4672
1	1545	4673
1	1564	4674
1	1581	4675
1	1600	4676
1	1619	4677
1	1639	4678
1	1661	4679
1	1706	4700
1	1701	4701
1	1697	4702
1	1692	4703
1	1691	4704
1	1688	4705
1	1688	4706
1	1688	4707
1	1688	4708
1	1688	4709
1	1683	4710
1	1674	4711
1	1665	4712
1	1664	4713
1	1665	4714
1	1675	4715
1	1688	4716
1	1701	4717
1	1715	4718
1	1716	4719
1	1710	4720
1	1696	4721
1	1686	4722
1	1684	4723
1	1684	4724
1	1674	4725
1	1661	4726
1	1652	4727
1	1644	4728
1	1638	4729
1	1636	4730
1	1634	4731
1	1633	4732
1	1639	4733
1	1646	4734
1	1656	4735
1	1670	4736
1	1684	4737
1	1702	4738
1	1710	4739
1	1708	4740
1	1701	4741
1	1682	4742
1	1660	4743
1	1634	4744
1	1607	4745
1	1589	4746
1	1581	4747
1	1575	4748
1	1562	4749
1	1557	4750
1	1556	4751
1	1561	4752
1	1571	4753
1	1581	4754
1	1595	4755
1	1610	4756
1	1630	4757
1	1651	4758
1	1682	4759
1	1699	4760
1	1716	4761
1	1723	4762
1	1723	4763
1	1721	4764
1	1710	4765
1	1686	4766
1	1661	4767
1	1636	4768
1	1607	4769
1	1584	4770
1	1567	4771
1	1555	4772
1	1547	4773
1	1542	4774
1	1548	4775
1	1557	4776
1	1572	4777
1	1593	4778
1	1610	4779
1	1621	4780
1	1631	4781
1	1631	4782
1	1634	4783
1	1638	4784
1	1646	4785
1	1652	4786
1	1662	4787
1	1683	4788
1	1699	4789
1	1711	4790
1	1724	4791
1	1734	4792
1	1747	4793
1	1754	4794
1	1762	4795
1	1765	4796
1	1765	4797
1	1754	4798
1	1738	4799
1	1718	4800
1	1698	4801
1	1674	4802
1	1656	4803
1	1634	4804
1	1623	4805
1	1620	4806
1	1634	4807
1	1662	4808
1	1688	4809
1	1717	4810
1	1739	4811
1	1752	4812
1	1764	4813
1	1775	4814
1	1790	4815
1	1801	4816
1	1811	4817
1	1802	4818
1	1769	4819
1	1738	4820
1	1692	4821
1	1647	4822
1	1611	4823
1	1582	4824
1	1565	4825
1	1549	4826
1	1531	4827
1	1516	4828
1	1503	4829
1	1490	4830
1	1479	4831
1	1476	4832
1	1482	4833
1	1502	4834
1	1523	4835
1	1555	4836
1	1585	4837
1	1613	4838
1	1641	4839
1	1656	4840
1	1661	4841
1	1661	4842
1	1665	4843
1	1668	4844
1	1658	4845
1	1655	4846
1	1657	4847
1	1661	4848
1	1671	4849
1	1679	4850
1	1686	4851
1	1689	4852
1	1697	4853
1	1702	4854
1	1708	4855
1	1718	4856
1	1734	4857
1	1756	4858
1	1778	4859
1	1793	4860
1	1795	4861
1	1791	4862
1	1786	4863
1	1764	4864
1	1751	4865
1	1731	4866
1	1710	4867
1	1687	4868
1	1665	4869
1	1643	4870
1	1634	4871
1	1626	4872
1	1629	4873
1	1638	4874
1	1657	4875
1	1675	4876
1	1697	4877
1	1721	4878
1	1747	4879
1	1771	4880
1	1793	4881
1	1815	4882
1	1836	4883
1	1849	4884
1	1856	4885
1	1855	4886
1	1843	4887
1	1818	4888
1	1780	4889
1	1742	4890
1	1706	4891
1	1676	4892
1	1657	4893
1	1646	4894
1	1648	4895
1	1660	4896
1	1683	4897
1	1717	4898
1	1751	4899
1	1771	4900
1	1783	4901
1	1783	4902
1	1773	4903
1	1756	4904
1	1728	4905
1	1688	4906
1	1649	4907
1	1616	4908
1	1585	4909
1	1564	4910
1	1551	4911
1	1553	4912
1	1582	4913
1	1625	4914
1	1667	4915
1	1712	4916
1	1750	4917
1	1772	4918
1	1778	4919
1	1773	4920
1	1760	4921
1	1739	4922
1	1721	4923
1	1699	4924
1	1686	4925
1	1683	4926
1	1679	4927
1	1686	4928
1	1710	4929
1	1735	4930
1	1760	4931
1	1782	4932
1	1798	4933
1	1818	4934
1	1834	4935
1	1845	4936
1	1845	4937
1	1841	4938
1	1818	4939
1	1791	4980
1	1807	4981
1	1808	4982
1	1808	4983
1	1807	4984
1	1807	4985
1	1811	4986
1	1821	4987
1	1838	4988
1	1843	4989
1	1845	4990
1	1848	4991
1	1844	4992
1	1845	4993
1	1835	4994
1	1819	4995
1	1816	4996
1	1817	4997
1	1826	4998
1	1834	4999
1	1791	4960
1	1757	4961
1	1721	4962
1	1692	4963
1	1665	4964
1	1647	4965
1	1641	4966
1	1633	4967
1	1625	4968
1	1621	4969
1	1619	4970
1	1625	4971
1	1636	4972
1	1660	4973
1	1690	4974
1	1719	4975
1	1751	4976
1	1769	4977
1	1783	4978
1	1791	4979
1	1844	5000
1	1855	5001
1	1860	5002
1	1867	5003
1	1867	5004
1	1865	5005
1	1857	5006
1	1848	5007
1	1845	5008
1	1836	5009
1	1824	5010
1	1817	5011
1	1808	5012
1	1802	5013
1	1809	5014
1	1803	5015
1	1791	5016
1	1778	5017
1	1769	5018
1	1756	5019
1	1749	5000
1	1748	5001
1	1758	5002
1	1782	5003
1	1817	5004
1	1842	5005
1	1858	5006
1	1875	5007
1	1891	5008
1	1901	5009
1	1910	5010
1	1922	5011
1	1935	5012
1	1948	5013
1	1952	5014
1	1960	5015
1	1965	5016
1	1973	5017
1	1985	5018
1	1983	5019
1	1974	5020
1	1961	5021
1	1947	5022
1	1934	5023
1	1922	5024
1	1901	5025
1	1880	5026
1	1859	5027
1	1843	5028
1	1827	5029
1	1827	5030
1	1836	5031
1	1855	5032
1	1881	5033
1	1902	5034
1	1914	5035
1	1922	5036
1	1934	5037
1	1943	5038
1	1924	5039
1	1854	5060
1	1850	5061
1	1838	5062
1	1829	5063
1	1827	5064
1	1818	5065
1	1814	5066
1	1814	5067
1	1817	5068
1	1817	5069
1	1817	5070
1	1809	5071
1	1803	5072
1	1809	5073
1	1817	5074
1	1831	5075
1	1837	5076
1	1829	5077
1	1813	5078
1	1782	5079
1	1917	5040
1	1907	5041
1	1895	5042
1	1883	5043
1	1869	5044
1	1855	5045
1	1834	5046
1	1809	5047
1	1777	5048
1	1749	5049
1	1724	5050
1	1709	5051
1	1700	5052
1	1713	5053
1	1723	5054
1	1741	5055
1	1764	5056
1	1795	5057
1	1830	5058
1	1843	5059
1	1752	5080
1	1713	5081
1	1683	5082
1	1660	5083
1	1645	5084
1	1629	5085
1	1608	5086
1	1596	5087
1	1589	5088
1	1585	5089
1	1592	5090
1	1609	5091
1	1634	5092
1	1668	5093
1	1712	5094
1	1760	5095
1	1799	5096
1	1841	5097
1	1857	5098
1	1874	5099
1	1884	5100
1	1878	5101
1	1860	5102
1	1836	5103
1	1796	5104
1	1748	5105
1	1688	5106
1	1629	5107
1	1572	5108
1	1529	5109
1	1490	5110
1	1463	5111
1	1450	5112
1	1450	5113
1	1459	5114
1	1476	5115
1	1499	5116
1	1518	5117
1	1541	5118
1	1555	5119
1	1565	5120
1	1562	5121
1	1555	5122
1	1549	5123
1	1555	5124
1	1551	5125
1	1542	5126
1	1535	5127
1	1539	5128
1	1544	5129
1	1553	5130
1	1563	5131
1	1575	5132
1	1593	5133
1	1607	5134
1	1626	5135
1	1646	5136
1	1661	5137
1	1684	5138
1	1706	5139
1	1710	5140
1	1699	5141
1	1677	5142
1	1657	5143
1	1634	5144
1	1602	5145
1	1579	5146
1	1556	5147
1	1546	5148
1	1543	5149
1	1554	5150
1	1571	5151
1	1593	5152
1	1610	5153
1	1633	5154
1	1652	5155
1	1665	5156
1	1679	5157
1	1694	5158
1	1698	5159
1	1697	5160
1	1688	5161
1	1673	5162
1	1657	5163
1	1634	5164
1	1609	5165
1	1590	5166
1	1579	5167
1	1579	5168
1	1589	5169
1	1607	5170
1	1634	5171
1	1668	5172
1	1702	5173
1	1738	5174
1	1767	5175
1	1787	5176
1	1790	5177
1	1789	5178
1	1766	5179
1	1662	5200
1	1636	5201
1	1607	5202
1	1581	5203
1	1562	5204
1	1539	5205
1	1515	5206
1	1498	5207
1	1491	5208
1	1502	5209
1	1530	5210
1	1571	5211
1	1612	5212
1	1651	5213
1	1685	5214
1	1698	5215
1	1698	5216
1	1688	5217
1	1672	5218
1	1657	5219
1	1741	5180
1	1710	5181
1	1668	5182
1	1634	5183
1	1607	5184
1	1570	5185
1	1539	5186
1	1514	5187
1	1498	5188
1	1490	5189
1	1490	5190
1	1497	5191
1	1508	5192
1	1531	5193
1	1566	5194
1	1610	5195
1	1647	5196
1	1676	5197
1	1686	5198
1	1683	5199
1	1647	5220
1	1638	5221
1	1633	5222
1	1632	5223
1	1625	5224
1	1629	5225
1	1634	5226
1	1635	5227
1	1643	5228
1	1659	5229
1	1673	5230
1	1686	5231
1	1691	5232
1	1694	5233
1	1690	5234
1	1690	5235
1	1686	5236
1	1687	5237
1	1690	5238
1	1688	5239
1	1689	5240
1	1690	5241
1	1686	5242
1	1692	5243
1	1700	5244
1	1705	5245
1	1715	5246
1	1728	5247
1	1744	5248
1	1755	5249
1	1765	5250
1	1764	5251
1	1752	5252
1	1735	5253
1	1705	5254
1	1680	5255
1	1652	5256
1	1617	5257
1	1579	5258
1	1547	5259
1	1518	5260
1	1490	5261
1	1466	5262
1	1456	5263
1	1462	5264
1	1473	5265
1	1485	5266
1	1495	5267
1	1503	5268
1	1506	5269
1	1517	5270
1	1526	5271
1	1531	5272
1	1555	5273
1	1584	5274
1	1621	5275
1	1647	5276
1	1665	5277
1	1683	5278
1	1688	5279
1	1690	5280
1	1683	5281
1	1669	5282
1	1652	5283
1	1634	5284
1	1620	5285
1	1610	5286
1	1611	5287
1	1625	5288
1	1647	5289
1	1657	5290
1	1661	5291
1	1661	5292
1	1667	5293
1	1670	5294
1	1673	5295
1	1668	5296
1	1660	5297
1	1647	5298
1	1634	5299
1	1626	5300
1	1620	5301
1	1620	5302
1	1623	5303
1	1634	5304
1	1644	5305
1	1661	5306
1	1686	5307
1	1715	5308
1	1742	5309
1	1764	5310
1	1783	5311
1	1791	5312
1	1795	5313
1	1785	5314
1	1764	5315
1	1739	5316
1	1710	5317
1	1677	5318
1	1648	5319
1	1620	5320
1	1593	5321
1	1580	5322
1	1580	5323
1	1584	5324
1	1587	5325
1	1587	5326
1	1586	5327
1	1586	5328
1	1581	5329
1	1581	5330
1	1593	5331
1	1607	5332
1	1632	5333
1	1660	5334
1	1678	5335
1	1689	5336
1	1692	5337
1	1686	5338
1	1682	5339
1	1661	5340
1	1652	5341
1	1643	5342
1	1634	5343
1	1629	5344
1	1623	5345
1	1619	5346
1	1611	5347
1	1609	5348
1	1612	5349
1	1619	5350
1	1625	5351
1	1634	5352
1	1659	5353
1	1678	5354
1	1697	5355
1	1720	5356
1	1738	5357
1	1744	5358
1	1743	5359
1	1738	5360
1	1727	5361
1	1708	5362
1	1690	5363
1	1686	5364
1	1671	5365
1	1652	5366
1	1634	5367
1	1611	5368
1	1598	5369
1	1600	5370
1	1607	5371
1	1620	5372
1	1645	5373
1	1665	5374
1	1698	5375
1	1729	5376
1	1755	5377
1	1773	5378
1	1788	5379
1	1790	5380
1	1777	5381
1	1751	5382
1	1716	5383
1	1673	5384
1	1626	5385
1	1586	5386
1	1566	5387
1	1557	5388
1	1553	5389
1	1555	5390
1	1564	5391
1	1581	5392
1	1612	5393
1	1657	5394
1	1688	5395
1	1710	5396
1	1712	5397
1	1708	5398
1	1688	5399
1	1674	5400
1	1658	5401
1	1634	5402
1	1618	5403
1	1598	5404
1	1581	5405
1	1562	5406
1	1547	5407
1	1541	5408
1	1545	5409
1	1557	5410
1	1581	5411
1	1608	5412
1	1641	5413
1	1670	5414
1	1694	5415
1	1710	5416
1	1716	5417
1	1713	5418
1	1694	5419
1	1671	5420
1	1647	5421
1	1629	5422
1	1615	5423
1	1611	5424
1	1599	5425
1	1584	5426
1	1577	5427
1	1571	5428
1	1571	5429
1	1573	5430
1	1581	5431
1	1594	5432
1	1612	5433
1	1621	5434
1	1631	5435
1	1634	5436
1	1629	5437
1	1634	5438
1	1650	5439
1	1665	5440
1	1682	5441
1	1691	5442
1	1693	5443
1	1686	5444
1	1670	5445
1	1661	5446
1	1654	5447
1	1644	5448
1	1633	5449
1	1625	5450
1	1625	5451
1	1631	5452
1	1638	5453
1	1641	5454
1	1643	5455
1	1638	5456
1	1634	5457
1	1641	5458
1	1646	5459
1	1659	5460
1	1670	5461
1	1687	5462
1	1706	5463
1	1712	5464
1	1711	5465
1	1710	5466
1	1710	5467
1	1710	5468
1	1712	5469
1	1712	5470
1	1698	5471
1	1683	5472
1	1671	5473
1	1655	5474
1	1634	5475
1	1613	5476
1	1592	5477
1	1570	5478
1	1542	5479
1	1521	5480
1	1503	5481
1	1490	5482
1	1494	5483
1	1511	5484
1	1529	5485
1	1554	5486
1	1589	5487
1	1623	5488
1	1661	5489
1	1693	5490
1	1723	5491
1	1751	5492
1	1783	5493
1	1801	5494
1	1818	5495
1	1822	5496
1	1815	5497
1	1796	5498
1	1773	5499
1	1751	5500
1	1729	5501
1	1715	5502
1	1711	5503
1	1703	5504
1	1688	5505
1	1679	5506
1	1672	5507
1	1665	5508
1	1662	5509
1	1660	5510
1	1652	5511
1	1643	5512
1	1644	5513
1	1658	5514
1	1672	5515
1	1685	5516
1	1694	5517
1	1699	5518
1	1700	5519
1	1691	5520
1	1670	5521
1	1643	5522
1	1620	5523
1	1594	5524
1	1572	5525
1	1557	5526
1	1554	5527
1	1555	5528
1	1571	5529
1	1589	5530
1	1611	5531
1	1639	5532
1	1675	5533
1	1704	5534
1	1728	5535
1	1743	5536
1	1751	5537
1	1760	5538
1	1757	5539
1	1752	5540
1	1738	5541
1	1712	5542
1	1684	5543
1	1650	5544
1	1621	5545
1	1598	5546
1	1579	5547
1	1567	5548
1	1555	5549
1	1552	5550
1	1555	5551
1	1571	5552
1	1595	5553
1	1609	5554
1	1625	5555
1	1638	5556
1	1649	5557
1	1667	5558
1	1686	5559
1	1699	5560
1	1711	5561
1	1715	5562
1	1721	5563
1	1727	5564
1	1731	5565
1	1735	5566
1	1738	5567
1	1739	5568
1	1741	5569
1	1747	5570
1	1752	5571
1	1758	5572
1	1769	5573
1	1791	5574
1	1803	5575
1	1811	5576
1	1809	5577
1	1796	5578
1	1779	5579
1	1761	5580
1	1741	5581
1	1724	5582
1	1705	5583
1	1681	5584
1	1660	5585
1	1639	5586
1	1619	5587
1	1607	5588
1	1613	5589
1	1629	5590
1	1647	5591
1	1664	5592
1	1694	5593
1	1725	5594
1	1763	5595
1	1796	5596
1	1832	5597
1	1854	5598
1	1859	5599
1	1858	5600
1	1843	5601
1	1815	5602
1	1779	5603
1	1748	5604
1	1710	5605
1	1671	5606
1	1641	5607
1	1618	5608
1	1600	5609
1	1592	5610
1	1581	5611
1	1580	5612
1	1589	5613
1	1600	5614
1	1618	5615
1	1634	5616
1	1644	5617
1	1647	5618
1	1652	5619
1	1870	5640
1	1850	5641
1	1822	5642
1	1791	5643
1	1756	5644
1	1717	5645
1	1687	5646
1	1661	5647
1	1643	5648
1	1630	5649
1	1629	5650
1	1636	5651
1	1658	5652
1	1696	5653
1	1736	5654
1	1778	5655
1	1818	5656
1	1845	5657
1	1863	5658
1	1863	5659
1	1646	5620
1	1631	5621
1	1621	5622
1	1620	5623
1	1612	5624
1	1607	5625
1	1602	5626
1	1605	5627
1	1617	5628
1	1641	5629
1	1679	5630
1	1716	5631
1	1755	5632
1	1791	5633
1	1833	5634
1	1859	5635
1	1875	5636
1	1886	5637
1	1893	5638
1	1890	5639
1	1859	5660
1	1847	5661
1	1823	5662
1	1800	5663
1	1779	5664
1	1751	5665
1	1728	5666
1	1705	5667
1	1687	5668
1	1677	5669
1	1678	5670
1	1690	5671
1	1711	5672
1	1739	5673
1	1762	5674
1	1779	5675
1	1791	5676
1	1790	5677
1	1782	5678
1	1769	5679
1	1752	5680
1	1736	5681
1	1715	5682
1	1710	5683
1	1712	5684
1	1726	5685
1	1739	5686
1	1752	5687
1	1764	5688
1	1770	5689
1	1789	5690
1	1813	5691
1	1834	5692
1	1862	5693
1	1898	5694
1	1930	5695
1	1959	5696
1	1981	5697
1	2001	5698
1	2007	5699
1	1999	5700
1	1974	5701
1	1949	5702
1	1922	5703
1	1890	5704
1	1859	5705
1	1832	5706
1	1815	5707
1	1796	5708
1	1801	5709
1	1803	5710
1	1812	5711
1	1820	5712
1	1836	5713
1	1855	5714
1	1877	5715
1	1898	5716
1	1912	5717
1	1914	5718
1	1897	5719
1	1922	5740
1	1886	5741
1	1844	5742
1	1803	5743
1	1770	5744
1	1738	5745
1	1715	5746
1	1708	5747
1	1714	5748
1	1735	5749
1	1757	5750
1	1786	5751
1	1816	5752
1	1845	5753
1	1869	5754
1	1897	5755
1	1922	5756
1	1935	5757
1	1935	5758
1	1913	5759
1	1884	5740
1	1862	5741
1	1843	5742
1	1830	5743
1	1830	5744
1	1829	5745
1	1831	5746
1	1834	5747
1	1833	5748
1	1832	5749
1	1841	5750
1	1855	5751
1	1877	5752
1	1917	5753
1	1944	5754
1	1970	5755
1	1985	5756
1	1989	5757
1	1976	5758
1	1962	5759
1	1883	5760
1	1845	5761
1	1816	5762
1	1790	5763
1	1766	5764
1	1764	5765
1	1776	5766
1	1789	5767
1	1803	5768
1	1829	5769
1	1842	5770
1	1856	5771
1	1869	5772
1	1883	5773
1	1886	5774
1	1881	5775
1	1858	5776
1	1823	5777
1	1774	5778
1	1720	5779
1	1677	5780
1	1639	5781
1	1607	5782
1	1589	5783
1	1581	5784
1	1571	5785
1	1575	5786
1	1590	5787
1	1607	5788
1	1625	5789
1	1638	5790
1	1654	5791
1	1662	5792
1	1674	5793
1	1675	5794
1	1683	5795
1	1684	5796
1	1683	5797
1	1681	5798
1	1685	5799
1	1674	5800
1	1655	5801
1	1634	5802
1	1616	5803
1	1600	5804
1	1593	5805
1	1594	5806
1	1602	5807
1	1612	5808
1	1625	5809
1	1644	5810
1	1661	5811
1	1686	5812
1	1708	5813
1	1728	5814
1	1736	5815
1	1731	5816
1	1733	5817
1	1733	5818
1	1726	5819
1	1716	5820
1	1693	5821
1	1667	5822
1	1647	5823
1	1625	5824
1	1605	5825
1	1584	5826
1	1568	5827
1	1556	5828
1	1555	5829
1	1553	5830
1	1549	5831
1	1544	5832
1	1550	5833
1	1553	5834
1	1556	5835
1	1562	5836
1	1572	5837
1	1572	5838
1	1554	5839
1	1543	5840
1	1530	5841
1	1526	5842
1	1529	5843
1	1530	5844
1	1530	5845
1	1531	5846
1	1545	5847
1	1559	5848
1	1581	5849
1	1602	5850
1	1625	5851
1	1652	5852
1	1686	5853
1	1713	5854
1	1742	5855
1	1764	5856
1	1764	5857
1	1752	5858
1	1728	5859
1	1710	5860
1	1682	5861
1	1647	5862
1	1625	5863
1	1605	5864
1	1593	5865
1	1587	5866
1	1590	5867
1	1604	5868
1	1618	5869
1	1647	5870
1	1673	5871
1	1690	5872
1	1699	5873
1	1705	5874
1	1701	5875
1	1693	5876
1	1684	5877
1	1672	5878
1	1654	5879
1	1636	5880
1	1622	5881
1	1608	5882
1	1608	5883
1	1607	5884
1	1612	5885
1	1622	5886
1	1634	5887
1	1647	5888
1	1667	5889
1	1686	5890
1	1708	5891
1	1712	5892
1	1713	5893
1	1715	5894
1	1715	5895
1	1712	5896
1	1700	5897
1	1698	5898
1	1688	5899
1	1686	5900
1	1680	5901
1	1665	5902
1	1651	5903
1	1633	5904
1	1600	5905
1	1566	5906
1	1539	5907
1	1515	5908
1	1500	5909
1	1495	5910
1	1507	5911
1	1528	5912
1	1552	5913
1	1570	5914
1	1593	5915
1	1616	5916
1	1635	5917
1	1663	5918
1	1693	5919
1	1712	5920
1	1724	5921
1	1726	5922
1	1734	5923
1	1738	5924
1	1737	5925
1	1726	5926
1	1710	5927
1	1686	5928
1	1648	5929
1	1620	5930
1	1594	5931
1	1574	5932
1	1566	5933
1	1566	5934
1	1567	5935
1	1569	5936
1	1574	5937
1	1589	5938
1	1603	5939
1	1616	5940
1	1634	5941
1	1648	5942
1	1660	5943
1	1667	5944
1	1670	5945
1	1670	5946
1	1670	5947
1	1679	5948
1	1683	5949
1	1688	5950
1	1686	5951
1	1682	5952
1	1683	5953
1	1683	5954
1	1679	5955
1	1670	5956
1	1662	5957
1	1660	5958
1	1647	5959
1	1634	5960
1	1620	5961
1	1607	5962
1	1598	5963
1	1587	5964
1	1576	5965
1	1568	5966
1	1566	5967
1	1567	5968
1	1570	5969
1	1581	5970
1	1596	5971
1	1616	5972
1	1644	5973
1	1667	5974
1	1696	5975
1	1717	5976
1	1737	5977
1	1742	5978
1	1739	5979
1	1725	5980
1	1711	5981
1	1690	5982
1	1674	5983
1	1660	5984
1	1654	5985
1	1650	5986
1	1642	5987
1	1629	5988
1	1612	5989
1	1607	5990
1	1607	5991
1	1610	5992
1	1624	5993
1	1644	5994
1	1659	5995
1	1668	5996
1	1674	5997
1	1674	5998
1	1665	5999
1	1651	6000
1	1639	6001
1	1634	6002
1	1644	6003
1	1659	6004
1	1669	6005
1	1682	6006
1	1686	6007
1	1690	6008
1	1697	6009
1	1697	6010
1	1697	6011
1	1693	6012
1	1697	6013
1	1704	6014
1	1706	6015
1	1711	6016
1	1710	6017
1	1701	6018
1	1681	6019
1	1721	6040
1	1703	6041
1	1694	6042
1	1682	6043
1	1665	6044
1	1648	6045
1	1639	6046
1	1638	6047
1	1645	6048
1	1651	6049
1	1660	6050
1	1678	6051
1	1692	6052
1	1712	6053
1	1728	6054
1	1738	6055
1	1743	6056
1	1742	6057
1	1741	6058
1	1734	6059
1	1661	6020
1	1639	6021
1	1620	6022
1	1611	6023
1	1608	6024
1	1594	6025
1	1575	6026
1	1559	6027
1	1554	6028
1	1549	6029
1	1546	6030
1	1549	6031
1	1559	6032
1	1589	6033
1	1617	6034
1	1652	6035
1	1680	6036
1	1695	6037
1	1712	6038
1	1718	6039
1	1718	6060
1	1699	6061
1	1680	6062
1	1664	6063
1	1644	6064
1	1629	6065
1	1618	6066
1	1610	6067
1	1613	6068
1	1628	6069
1	1634	6070
1	1639	6071
1	1647	6072
1	1664	6073
1	1683	6074
1	1698	6075
1	1701	6076
1	1700	6077
1	1696	6078
1	1676	6079
1	1656	6080
1	1631	6081
1	1607	6082
1	1598	6083
1	1594	6084
1	1594	6085
1	1597	6086
1	1606	6087
1	1616	6088
1	1634	6089
1	1648	6090
1	1661	6091
1	1667	6092
1	1676	6093
1	1680	6094
1	1690	6095
1	1697	6096
1	1698	6097
1	1701	6098
1	1710	6099
1	1708	6100
1	1714	6101
1	1703	6102
1	1683	6103
1	1654	6104
1	1625	6105
1	1595	6106
1	1571	6107
1	1551	6108
1	1538	6109
1	1533	6110
1	1541	6111
1	1556	6112
1	1597	6113
1	1647	6114
1	1686	6115
1	1711	6116
1	1721	6117
1	1724	6118
1	1719	6119
1	1710	6120
1	1697	6121
1	1687	6122
1	1683	6123
1	1672	6124
1	1661	6125
1	1647	6126
1	1634	6127
1	1619	6128
1	1618	6129
1	1619	6130
1	1628	6131
1	1648	6132
1	1669	6133
1	1686	6134
1	1699	6135
1	1707	6136
1	1711	6137
1	1713	6138
1	1706	6139
1	1668	6180
1	1611	6181
1	1555	6182
1	1512	6183
1	1476	6184
1	1454	6185
1	1449	6186
1	1450	6187
1	1466	6188
1	1495	6189
1	1528	6190
1	1562	6191
1	1603	6192
1	1643	6193
1	1675	6194
1	1702	6195
1	1722	6196
1	1731	6197
1	1734	6198
1	1723	6199
1	1688	6160
1	1647	6161
1	1606	6162
1	1580	6163
1	1557	6164
1	1547	6165
1	1553	6166
1	1570	6167
1	1598	6168
1	1631	6169
1	1667	6170
1	1703	6171
1	1736	6172
1	1763	6173
1	1790	6174
1	1801	6175
1	1796	6176
1	1787	6177
1	1757	6178
1	1717	6179
1	1700	6140
1	1686	6141
1	1667	6142
1	1647	6143
1	1615	6144
1	1584	6145
1	1555	6146
1	1531	6147
1	1529	6148
1	1538	6149
1	1564	6150
1	1605	6151
1	1644	6152
1	1692	6153
1	1724	6154
1	1752	6155
1	1769	6156
1	1770	6157
1	1753	6158
1	1728	6159
1	1723	6200
1	1718	6201
1	1716	6202
1	1715	6203
1	1716	6204
1	1712	6205
1	1712	6206
1	1712	6207
1	1715	6208
1	1724	6209
1	1737	6210
1	1751	6211
1	1763	6212
1	1776	6213
1	1783	6214
1	1795	6215
1	1803	6216
1	1802	6217
1	1792	6218
1	1777	6219
1	1751	6220
1	1716	6221
1	1690	6222
1	1670	6223
1	1649	6224
1	1634	6225
1	1620	6226
1	1616	6227
1	1620	6228
1	1629	6229
1	1641	6230
1	1652	6231
1	1665	6232
1	1685	6233
1	1706	6234
1	1717	6235
1	1721	6236
1	1718	6237
1	1715	6238
1	1712	6239
1	1703	6240
1	1695	6241
1	1686	6242
1	1668	6243
1	1636	6244
1	1603	6245
1	1572	6246
1	1551	6247
1	1543	6248
1	1542	6249
1	1541	6250
1	1543	6251
1	1554	6252
1	1574	6253
1	1595	6254
1	1620	6255
1	1636	6256
1	1648	6257
1	1657	6258
1	1654	6259
1	1651	6260
1	1639	6261
1	1629	6262
1	1623	6263
1	1613	6264
1	1607	6265
1	1594	6266
1	1589	6267
1	1589	6268
1	1597	6269
1	1611	6270
1	1623	6271
1	1634	6272
1	1647	6273
1	1656	6274
1	1667	6275
1	1678	6276
1	1680	6277
1	1675	6278
1	1669	6279
1	1656	6280
1	1638	6281
1	1620	6282
1	1605	6283
1	1590	6284
1	1580	6285
1	1580	6286
1	1584	6287
1	1603	6288
1	1625	6289
1	1659	6290
1	1692	6291
1	1726	6292
1	1764	6293
1	1802	6294
1	1836	6295
1	1858	6296
1	1872	6297
1	1877	6298
1	1865	6299
1	1836	6300
1	1798	6301
1	1769	6302
1	1747	6303
1	1721	6304
1	1695	6305
1	1662	6306
1	1634	6307
1	1605	6308
1	1593	6309
1	1586	6310
1	1593	6311
1	1612	6312
1	1647	6313
1	1686	6314
1	1721	6315
1	1747	6316
1	1757	6317
1	1754	6318
1	1736	6319
1	1714	6320
1	1688	6321
1	1661	6322
1	1641	6323
1	1629	6324
1	1613	6325
1	1610	6326
1	1615	6327
1	1628	6328
1	1643	6329
1	1661	6330
1	1686	6331
1	1711	6332
1	1738	6333
1	1743	6334
1	1749	6335
1	1751	6336
1	1755	6337
1	1756	6338
1	1753	6339
1	1742	6340
1	1719	6341
1	1710	6342
1	1698	6343
1	1688	6344
1	1680	6345
1	1680	6346
1	1685	6347
1	1688	6348
1	1691	6349
1	1692	6350
1	1698	6351
1	1706	6352
1	1713	6353
1	1725	6354
1	1738	6355
1	1751	6356
1	1762	6357
1	1778	6358
1	1780	6359
1	1776	6360
1	1764	6361
1	1744	6362
1	1726	6363
1	1702	6364
1	1686	6365
1	1685	6366
1	1688	6367
1	1697	6368
1	1710	6369
1	1715	6370
1	1718	6371
1	1728	6372
1	1744	6373
1	1764	6374
1	1787	6375
1	1801	6376
1	1817	6377
1	1818	6378
1	1814	6379
1	1808	6380
1	1796	6381
1	1790	6382
1	1783	6383
1	1777	6384
1	1760	6385
1	1746	6386
1	1738	6387
1	1736	6388
1	1729	6389
1	1726	6390
1	1723	6391
1	1730	6392
1	1749	6393
1	1764	6394
1	1790	6395
1	1811	6396
1	1818	6397
1	1819	6398
1	1819	6399
1	1800	6400
1	1788	6401
1	1773	6402
1	1773	6403
1	1777	6404
1	1782	6405
1	1793	6406
1	1811	6407
1	1826	6408
1	1837	6409
1	1859	6410
1	1885	6411
1	1901	6412
1	1917	6413
1	1927	6414
1	1928	6415
1	1926	6416
1	1917	6417
1	1898	6418
1	1873	6419
1	1847	6420
1	1818	6421
1	1794	6422
1	1782	6423
1	1766	6424
1	1763	6425
1	1769	6426
1	1782	6427
1	1802	6428
1	1834	6429
1	1852	6430
1	1864	6431
1	1874	6432
1	1891	6433
1	1910	6434
1	1927	6435
1	1944	6436
1	1947	6437
1	1947	6438
1	1934	6439
1	1923	6440
1	1908	6441
1	1891	6442
1	1873	6443
1	1850	6444
1	1827	6445
1	1808	6446
1	1791	6447
1	1791	6448
1	1782	6449
1	1782	6450
1	1785	6451
1	1796	6452
1	1817	6453
1	1831	6454
1	1843	6455
1	1852	6456
1	1857	6457
1	1857	6458
1	1863	6459
1	1865	6460
1	1861	6461
1	1854	6462
1	1846	6463
1	1833	6464
1	1817	6465
1	1796	6466
1	1786	6467
1	1773	6468
1	1753	6469
1	1742	6470
1	1738	6471
1	1737	6472
1	1737	6473
1	1737	6474
1	1725	6475
1	1715	6476
1	1701	6477
1	1683	6478
1	1660	6479
1	1663	6500
1	1657	6501
1	1654	6502
1	1660	6503
1	1670	6504
1	1672	6505
1	1683	6506
1	1692	6507
1	1695	6508
1	1682	6509
1	1661	6510
1	1641	6511
1	1621	6512
1	1616	6513
1	1607	6514
1	1607	6515
1	1609	6516
1	1607	6517
1	1605	6518
1	1599	6519
1	1633	6480
1	1602	6481
1	1573	6482
1	1553	6483
1	1533	6484
1	1525	6485
1	1527	6486
1	1531	6487
1	1542	6488
1	1566	6489
1	1585	6490
1	1607	6491
1	1633	6492
1	1654	6493
1	1673	6494
1	1686	6495
1	1695	6496
1	1695	6497
1	1688	6498
1	1674	6499
1	1593	6520
1	1580	6521
1	1568	6522
1	1557	6523
1	1546	6524
1	1530	6525
1	1512	6526
1	1490	6527
1	1469	6528
1	1446	6529
1	1436	6530
1	1437	6531
1	1451	6532
1	1478	6533
1	1513	6534
1	1539	6535
1	1564	6536
1	1584	6537
1	1602	6538
1	1607	6539
1	1602	6540
1	1596	6541
1	1589	6542
1	1586	6543
1	1581	6544
1	1579	6545
1	1566	6546
1	1555	6547
1	1550	6548
1	1544	6549
1	1542	6550
1	1544	6551
1	1554	6552
1	1575	6553
1	1584	6554
1	1585	6555
1	1583	6556
1	1584	6557
1	1589	6558
1	1584	6559
1	1582	6560
1	1581	6561
1	1575	6562
1	1572	6563
1	1578	6564
1	1580	6565
1	1581	6566
1	1584	6567
1	1586	6568
1	1587	6569
1	1592	6570
1	1598	6571
1	1605	6572
1	1607	6573
1	1606	6574
1	1607	6575
1	1611	6576
1	1618	6577
1	1625	6578
1	1634	6579
1	1634	6580
1	1634	6581
1	1633	6582
1	1636	6583
1	1638	6584
1	1632	6585
1	1619	6586
1	1602	6587
1	1580	6588
1	1552	6589
1	1529	6590
1	1503	6591
1	1481	6592
1	1471	6593
1	1472	6594
1	1481	6595
1	1499	6596
1	1518	6597
1	1553	6598
1	1580	6599
1	1600	6600
1	1618	6601
1	1631	6602
1	1634	6603
1	1618	6604
1	1603	6605
1	1584	6606
1	1556	6607
1	1530	6608
1	1510	6609
1	1492	6610
1	1486	6611
1	1489	6612
1	1495	6613
1	1503	6614
1	1511	6615
1	1518	6616
1	1526	6617
1	1529	6618
1	1528	6619
1	1529	6620
1	1531	6621
1	1536	6622
1	1553	6623
1	1572	6624
1	1584	6625
1	1594	6626
1	1607	6627
1	1618	6628
1	1633	6629
1	1643	6630
1	1661	6631
1	1687	6632
1	1712	6633
1	1724	6634
1	1734	6635
1	1738	6636
1	1728	6637
1	1710	6638
1	1684	6639
1	1648	6640
1	1610	6641
1	1592	6642
1	1572	6643
1	1566	6644
1	1561	6645
1	1554	6646
1	1543	6647
1	1530	6648
1	1513	6649
1	1502	6650
1	1494	6651
1	1494	6652
1	1506	6653
1	1529	6654
1	1557	6655
1	1593	6656
1	1628	6657
1	1664	6658
1	1685	6659
1	1698	6660
1	1701	6661
1	1695	6662
1	1684	6663
1	1659	6664
1	1633	6665
1	1599	6666
1	1559	6667
1	1526	6668
1	1505	6669
1	1501	6670
1	1511	6671
1	1537	6672
1	1577	6673
1	1610	6674
1	1632	6675
1	1634	6676
1	1634	6677
1	1631	6678
1	1620	6679
1	1608	6680
1	1598	6681
1	1582	6682
1	1572	6683
1	1561	6684
1	1544	6685
1	1529	6686
1	1512	6687
1	1502	6688
1	1494	6689
1	1494	6690
1	1499	6691
1	1516	6692
1	1539	6693
1	1558	6694
1	1586	6695
1	1609	6696
1	1634	6697
1	1660	6698
1	1674	6699
1	1677	6700
1	1674	6701
1	1665	6702
1	1656	6703
1	1634	6704
1	1613	6705
1	1598	6706
1	1585	6707
1	1580	6708
1	1572	6709
1	1569	6710
1	1570	6711
1	1575	6712
1	1582	6713
1	1602	6714
1	1616	6715
1	1623	6716
1	1622	6717
1	1611	6718
1	1600	6719
1	1511	6740
1	1487	6741
1	1476	6742
1	1471	6743
1	1465	6744
1	1468	6745
1	1476	6746
1	1490	6747
1	1524	6748
1	1553	6749
1	1584	6750
1	1613	6751
1	1639	6752
1	1660	6753
1	1671	6754
1	1683	6755
1	1686	6756
1	1685	6757
1	1686	6758
1	1682	6759
1	1590	6720
1	1581	6721
1	1575	6722
1	1574	6723
1	1566	6724
1	1555	6725
1	1550	6726
1	1542	6727
1	1536	6728
1	1532	6729
1	1526	6730
1	1526	6731
1	1533	6732
1	1543	6733
1	1556	6734
1	1569	6735
1	1574	6736
1	1572	6737
1	1557	6738
1	1531	6739
1	1660	6760
1	1634	6761
1	1607	6762
1	1580	6763
1	1551	6764
1	1526	6765
1	1503	6766
1	1494	6767
1	1495	6768
1	1503	6769
1	1525	6770
1	1544	6771
1	1571	6772
1	1607	6773
1	1647	6774
1	1682	6775
1	1701	6776
1	1716	6777
1	1721	6778
1	1709	6779
1	1683	6780
1	1649	6781
1	1611	6782
1	1577	6783
1	1533	6784
1	1499	6785
1	1472	6786
1	1449	6787
1	1438	6788
1	1447	6789
1	1463	6790
1	1490	6791
1	1529	6792
1	1572	6793
1	1610	6794
1	1647	6795
1	1672	6796
1	1678	6797
1	1672	6798
1	1662	6799
1	1651	6800
1	1638	6801
1	1629	6802
1	1610	6803
1	1599	6804
1	1589	6805
1	1582	6806
1	1580	6807
1	1583	6808
1	1590	6809
1	1598	6810
1	1609	6811
1	1625	6812
1	1646	6813
1	1667	6814
1	1688	6815
1	1701	6816
1	1698	6817
1	1686	6818
1	1675	6819
1	1648	6820
1	1611	6821
1	1577	6822
1	1548	6823
1	1520	6824
1	1498	6825
1	1485	6826
1	1478	6827
1	1485	6828
1	1494	6829
1	1517	6830
1	1548	6831
1	1577	6832
1	1600	6833
1	1625	6834
1	1636	6835
1	1642	6836
1	1638	6837
1	1626	6838
1	1607	6839
1	1585	6840
1	1567	6841
1	1555	6842
1	1542	6843
1	1527	6844
1	1507	6845
1	1494	6846
1	1476	6847
1	1467	6848
1	1471	6849
1	1476	6850
1	1488	6851
1	1501	6852
1	1529	6853
1	1555	6854
1	1581	6855
1	1607	6856
1	1626	6857
1	1638	6858
1	1644	6859
1	1644	6860
1	1642	6861
1	1634	6862
1	1631	6863
1	1633	6864
1	1633	6865
1	1626	6866
1	1616	6867
1	1607	6868
1	1596	6869
1	1590	6870
1	1592	6871
1	1593	6872
1	1600	6873
1	1594	6874
1	1584	6875
1	1576	6876
1	1559	6877
1	1554	6878
1	1557	6879
1	1558	6880
1	1555	6881
1	1553	6882
1	1553	6883
1	1549	6884
1	1553	6885
1	1555	6886
1	1569	6887
1	1592	6888
1	1607	6889
1	1622	6890
1	1635	6891
1	1649	6892
1	1657	6893
1	1660	6894
1	1655	6895
1	1652	6896
1	1646	6897
1	1646	6898
1	1633	6899
1	1607	6900
1	1573	6901
1	1539	6902
1	1510	6903
1	1479	6904
1	1454	6905
1	1431	6906
1	1411	6907
1	1398	6908
1	1405	6909
1	1424	6910
1	1452	6911
1	1489	6912
1	1526	6913
1	1556	6914
1	1585	6915
1	1607	6916
1	1632	6917
1	1649	6918
1	1660	6919
1	1669	6920
1	1681	6921
1	1686	6922
1	1694	6923
1	1700	6924
1	1697	6925
1	1692	6926
1	1690	6927
1	1693	6928
1	1697	6929
1	1696	6930
1	1687	6931
1	1684	6932
1	1671	6933
1	1647	6934
1	1613	6935
1	1585	6936
1	1567	6937
1	1561	6938
1	1567	6939
1	1567	6940
1	1561	6941
1	1570	6942
1	1577	6943
1	1582	6944
1	1593	6945
1	1607	6946
1	1616	6947
1	1618	6948
1	1611	6949
1	1603	6950
1	1594	6951
1	1597	6952
1	1610	6953
1	1629	6954
1	1641	6955
1	1647	6956
1	1647	6957
1	1648	6958
1	1637	6959
1	1618	6960
1	1589	6961
1	1557	6962
1	1534	6963
1	1512	6964
1	1500	6965
1	1498	6966
1	1501	6967
1	1512	6968
1	1533	6969
1	1557	6970
1	1586	6971
1	1615	6972
1	1641	6973
1	1662	6974
1	1681	6975
1	1691	6976
1	1694	6977
1	1692	6978
1	1671	6979
1	1552	7000
1	1555	7001
1	1557	7002
1	1567	7003
1	1575	7004
1	1584	7005
1	1597	7006
1	1611	7007
1	1631	7008
1	1637	7009
1	1652	7010
1	1669	7011
1	1686	7012
1	1708	7013
1	1738	7014
1	1760	7015
1	1768	7016
1	1764	7017
1	1754	7018
1	1736	7019
1	1643	6980
1	1607	6981
1	1579	6982
1	1557	6983
1	1546	6984
1	1535	6985
1	1529	6986
1	1534	6987
1	1541	6988
1	1547	6989
1	1553	6990
1	1554	6991
1	1553	6992
1	1553	6993
1	1544	6994
1	1538	6995
1	1532	6996
1	1529	6997
1	1530	6998
1	1543	6999
1	1710	7020
1	1679	7021
1	1648	7022
1	1622	7023
1	1589	7024
1	1567	7025
1	1555	7026
1	1552	7027
1	1555	7028
1	1570	7029
1	1584	7030
1	1600	7031
1	1625	7032
1	1651	7033
1	1671	7034
1	1683	7035
1	1681	7036
1	1672	7037
1	1660	7038
1	1646	7039
1	1634	7040
1	1618	7041
1	1607	7042
1	1594	7043
1	1575	7044
1	1555	7045
1	1548	7046
1	1543	7047
1	1553	7048
1	1566	7049
1	1585	7050
1	1607	7051
1	1635	7052
1	1661	7053
1	1680	7054
1	1686	7055
1	1674	7056
1	1656	7057
1	1633	7058
1	1616	7059
1	1598	7060
1	1584	7061
1	1570	7062
1	1559	7063
1	1551	7064
1	1551	7065
1	1558	7066
1	1580	7067
1	1607	7068
1	1634	7069
1	1670	7070
1	1710	7071
1	1746	7072
1	1769	7073
1	1788	7074
1	1784	7075
1	1764	7076
1	1737	7077
1	1698	7078
1	1659	7079
1	1621	7080
1	1590	7081
1	1572	7082
1	1569	7083
1	1569	7084
1	1582	7085
1	1595	7086
1	1605	7087
1	1616	7088
1	1633	7089
1	1643	7090
1	1659	7091
1	1675	7092
1	1691	7093
1	1703	7094
1	1715	7095
1	1728	7096
1	1737	7097
1	1747	7098
1	1758	7099
1	1767	7100
1	1778	7101
1	1787	7102
1	1800	7103
1	1817	7104
1	1817	7105
1	1819	7106
1	1819	7107
1	1819	7108
1	1814	7109
1	1807	7110
1	1799	7111
1	1806	7112
1	1821	7113
1	1832	7114
1	1843	7115
1	1846	7116
1	1843	7117
1	1830	7118
1	1822	7119
1	1681	7140
1	1670	7141
1	1674	7142
1	1683	7143
1	1692	7144
1	1708	7145
1	1726	7146
1	1748	7147
1	1775	7148
1	1802	7149
1	1832	7150
1	1856	7151
1	1883	7152
1	1917	7153
1	1943	7154
1	1956	7155
1	1970	7156
1	1977	7157
1	1983	7158
1	1974	7159
1	1808	7120
1	1791	7121
1	1786	7122
1	1785	7123
1	1789	7124
1	1795	7125
1	1816	7126
1	1837	7127
1	1852	7128
1	1855	7129
1	1855	7130
1	1851	7131
1	1847	7132
1	1842	7133
1	1841	7134
1	1823	7135
1	1793	7136
1	1765	7137
1	1736	7138
1	1708	7139
1	1958	7160
1	1935	7161
1	1908	7162
1	1878	7163
1	1852	7164
1	1823	7165
1	1791	7166
1	1770	7167
1	1764	7168
1	1764	7169
1	1773	7170
1	1790	7171
1	1814	7172
1	1837	7173
1	1856	7174
1	1877	7175
1	1896	7176
1	1913	7177
1	1929	7178
1	1945	7179
1	1937	7180
1	1920	7181
1	1899	7182
1	1881	7183
1	1859	7184
1	1841	7185
1	1818	7186
1	1791	7187
1	1764	7188
1	1738	7189
1	1715	7190
1	1699	7191
1	1690	7192
1	1688	7193
1	1701	7194
1	1712	7195
1	1713	7196
1	1707	7197
1	1705	7198
1	1703	7199
1	1705	7200
1	1703	7201
1	1705	7202
1	1711	7203
1	1712	7204
1	1720	7205
1	1735	7206
1	1739	7207
1	1742	7208
1	1755	7209
1	1762	7210
1	1763	7211
1	1764	7212
1	1764	7213
1	1762	7214
1	1750	7215
1	1728	7216
1	1699	7217
1	1664	7218
1	1623	7219
1	1581	7220
1	1533	7221
1	1494	7222
1	1466	7223
1	1453	7224
1	1449	7225
1	1462	7226
1	1488	7227
1	1525	7228
1	1566	7229
1	1607	7230
1	1639	7231
1	1669	7232
1	1693	7233
1	1703	7234
1	1710	7235
1	1701	7236
1	1686	7237
1	1662	7238
1	1640	7239
1	1607	7240
1	1566	7241
1	1542	7242
1	1514	7243
1	1503	7244
1	1495	7245
1	1490	7246
1	1477	7247
1	1467	7248
1	1458	7249
1	1458	7250
1	1463	7251
1	1477	7252
1	1503	7253
1	1528	7254
1	1549	7255
1	1566	7256
1	1576	7257
1	1586	7258
1	1587	7259
1	1581	7260
1	1569	7261
1	1556	7262
1	1552	7263
1	1535	7264
1	1523	7265
1	1511	7266
1	1503	7267
1	1503	7268
1	1508	7269
1	1530	7270
1	1547	7271
1	1576	7272
1	1607	7273
1	1637	7274
1	1661	7275
1	1679	7276
1	1686	7277
1	1686	7278
1	1670	7279
1	1555	7300
1	1520	7301
1	1485	7302
1	1455	7303
1	1432	7304
1	1416	7305
1	1406	7306
1	1402	7307
1	1411	7308
1	1421	7309
1	1436	7310
1	1458	7311
1	1490	7312
1	1528	7313
1	1567	7314
1	1596	7315
1	1620	7316
1	1631	7317
1	1633	7318
1	1625	7319
1	1652	7280
1	1623	7281
1	1599	7282
1	1583	7283
1	1581	7284
1	1570	7285
1	1555	7286
1	1543	7287
1	1530	7288
1	1530	7289
1	1543	7290
1	1562	7291
1	1589	7292
1	1612	7293
1	1632	7294
1	1638	7295
1	1639	7296
1	1629	7297
1	1608	7298
1	1590	7299
1	1608	7320
1	1590	7321
1	1587	7322
1	1587	7323
1	1575	7324
1	1564	7325
1	1548	7326
1	1537	7327
1	1530	7328
1	1536	7329
1	1530	7330
1	1530	7331
1	1541	7332
1	1554	7333
1	1568	7334
1	1582	7335
1	1597	7336
1	1611	7337
1	1622	7338
1	1620	7339
1	1620	7340
1	1611	7341
1	1611	7342
1	1615	7343
1	1623	7344
1	1630	7345
1	1639	7346
1	1660	7347
1	1672	7348
1	1688	7349
1	1710	7350
1	1731	7351
1	1748	7352
1	1751	7353
1	1739	7354
1	1724	7355
1	1707	7356
1	1687	7357
1	1661	7358
1	1634	7359
1	1603	7360
1	1571	7361
1	1543	7362
1	1538	7363
1	1526	7364
1	1518	7365
1	1510	7366
1	1508	7367
1	1518	7368
1	1525	7369
1	1535	7370
1	1542	7371
1	1548	7372
1	1556	7373
1	1575	7374
1	1588	7375
1	1597	7376
1	1610	7377
1	1621	7378
1	1629	7379
1	1621	7380
1	1600	7381
1	1577	7382
1	1541	7383
1	1490	7384
1	1448	7385
1	1407	7386
1	1373	7387
1	1346	7388
1	1335	7389
1	1336	7390
1	1356	7391
1	1398	7392
1	1441	7393
1	1479	7394
1	1515	7395
1	1553	7396
1	1590	7397
1	1613	7398
1	1634	7399
1	1647	7400
1	1652	7401
1	1648	7402
1	1638	7403
1	1628	7404
1	1608	7405
1	1595	7406
1	1584	7407
1	1582	7408
1	1581	7409
1	1577	7410
1	1566	7411
1	1559	7412
1	1557	7413
1	1556	7414
1	1562	7415
1	1574	7416
1	1582	7417
1	1592	7418
1	1599	7419
1	1592	7420
1	1573	7421
1	1555	7422
1	1553	7423
1	1548	7424
1	1549	7425
1	1553	7426
1	1553	7427
1	1548	7428
1	1542	7429
1	1547	7430
1	1555	7431
1	1574	7432
1	1592	7433
1	1618	7434
1	1638	7435
1	1654	7436
1	1665	7437
1	1671	7438
1	1672	7439
1	1661	7440
1	1648	7441
1	1633	7442
1	1612	7443
1	1593	7444
1	1584	7445
1	1584	7446
1	1591	7447
1	1606	7448
1	1621	7449
1	1635	7450
1	1650	7451
1	1659	7452
1	1682	7453
1	1694	7454
1	1706	7455
1	1715	7456
1	1733	7457
1	1737	7458
1	1727	7459
1	1712	7460
1	1700	7461
1	1686	7462
1	1664	7463
1	1646	7464
1	1618	7465
1	1598	7466
1	1581	7467
1	1561	7468
1	1549	7469
1	1541	7470
1	1537	7471
1	1546	7472
1	1555	7473
1	1561	7474
1	1573	7475
1	1587	7476
1	1603	7477
1	1613	7478
1	1629	7479
1	1634	7480
1	1638	7481
1	1647	7482
1	1657	7483
1	1661	7484
1	1670	7485
1	1683	7486
1	1688	7487
1	1692	7488
1	1686	7489
1	1687	7490
1	1689	7491
1	1697	7492
1	1707	7493
1	1726	7494
1	1733	7495
1	1735	7496
1	1723	7497
1	1701	7498
1	1677	7499
1	1646	7500
1	1624	7501
1	1600	7502
1	1584	7503
1	1571	7504
1	1555	7505
1	1542	7506
1	1532	7507
1	1526	7508
1	1531	7509
1	1538	7510
1	1551	7511
1	1569	7512
1	1593	7513
1	1620	7514
1	1639	7515
1	1647	7516
1	1647	7517
1	1634	7518
1	1607	7519
1	1581	7520
1	1555	7521
1	1529	7522
1	1506	7523
1	1495	7524
1	1488	7525
1	1490	7526
1	1495	7527
1	1501	7528
1	1503	7529
1	1508	7530
1	1516	7531
1	1535	7532
1	1562	7533
1	1583	7534
1	1610	7535
1	1638	7536
1	1660	7537
1	1680	7538
1	1695	7539
1	1600	7560
1	1580	7561
1	1569	7562
1	1571	7563
1	1569	7564
1	1577	7565
1	1581	7566
1	1584	7567
1	1585	7568
1	1600	7569
1	1607	7570
1	1620	7571
1	1635	7572
1	1650	7573
1	1657	7574
1	1656	7575
1	1649	7576
1	1637	7577
1	1625	7578
1	1602	7579
1	1700	7540
1	1682	7541
1	1672	7542
1	1650	7543
1	1643	7544
1	1634	7545
1	1629	7546
1	1625	7547
1	1634	7548
1	1652	7549
1	1667	7550
1	1682	7551
1	1693	7552
1	1702	7553
1	1715	7554
1	1716	7555
1	1709	7556
1	1688	7557
1	1662	7558
1	1634	7559
1	1580	7580
1	1555	7581
1	1540	7582
1	1529	7583
1	1535	7584
1	1544	7585
1	1561	7586
1	1587	7587
1	1618	7588
1	1651	7589
1	1683	7590
1	1707	7591
1	1731	7592
1	1741	7593
1	1730	7594
1	1706	7595
1	1677	7596
1	1647	7597
1	1616	7598
1	1607	7599
1	1584	7600
1	1564	7601
1	1553	7602
1	1542	7603
1	1538	7604
1	1534	7605
1	1540	7606
1	1549	7607
1	1566	7608
1	1581	7609
1	1598	7610
1	1619	7611
1	1643	7612
1	1658	7613
1	1684	7614
1	1697	7615
1	1703	7616
1	1710	7617
1	1711	7618
1	1708	7619
1	1697	7620
1	1683	7621
1	1661	7622
1	1638	7623
1	1606	7624
1	1573	7625
1	1542	7626
1	1517	7627
1	1490	7628
1	1490	7629
1	1485	7630
1	1485	7631
1	1499	7632
1	1517	7633
1	1543	7634
1	1571	7635
1	1595	7636
1	1613	7637
1	1627	7638
1	1625	7639
1	1529	7680
1	1535	7681
1	1543	7682
1	1557	7683
1	1569	7684
1	1597	7685
1	1625	7686
1	1652	7687
1	1679	7688
1	1712	7689
1	1730	7690
1	1740	7691
1	1750	7692
1	1751	7693
1	1751	7694
1	1744	7695
1	1731	7696
1	1711	7697
1	1683	7698
1	1639	7699
1	1621	7640
1	1623	7641
1	1629	7642
1	1634	7643
1	1643	7644
1	1657	7645
1	1674	7646
1	1696	7647
1	1730	7648
1	1764	7649
1	1803	7650
1	1843	7651
1	1873	7652
1	1898	7653
1	1896	7654
1	1881	7655
1	1852	7656
1	1817	7657
1	1769	7658
1	1736	7659
1	1703	7660
1	1680	7661
1	1672	7662
1	1670	7663
1	1664	7664
1	1659	7665
1	1654	7666
1	1651	7667
1	1647	7668
1	1638	7669
1	1631	7670
1	1616	7671
1	1607	7672
1	1600	7673
1	1587	7674
1	1574	7675
1	1555	7676
1	1542	7677
1	1528	7678
1	1526	7679
1	1607	7700
1	1581	7701
1	1571	7702
1	1562	7703
1	1578	7704
1	1584	7705
1	1600	7706
1	1625	7707
1	1651	7708
1	1674	7709
1	1694	7710
1	1701	7711
1	1711	7712
1	1724	7713
1	1738	7714
1	1760	7715
1	1783	7716
1	1817	7717
1	1841	7718
1	1873	7719
1	1892	7720
1	1898	7721
1	1899	7722
1	1895	7723
1	1878	7724
1	1859	7725
1	1832	7726
1	1791	7727
1	1749	7728
1	1700	7729
1	1662	7730
1	1634	7731
1	1624	7732
1	1626	7733
1	1651	7734
1	1673	7735
1	1691	7736
1	1708	7737
1	1714	7738
1	1716	7739
1	1701	7740
1	1688	7741
1	1673	7742
1	1655	7743
1	1630	7744
1	1605	7745
1	1577	7746
1	1568	7747
1	1580	7748
1	1603	7749
1	1624	7750
1	1647	7751
1	1677	7752
1	1715	7753
1	1751	7754
1	1785	7755
1	1815	7756
1	1833	7757
1	1845	7758
1	1841	7759
1	1818	7760
1	1780	7761
1	1739	7762
1	1695	7763
1	1665	7764
1	1638	7765
1	1621	7766
1	1607	7767
1	1604	7768
1	1602	7769
1	1605	7770
1	1607	7771
1	1624	7772
1	1648	7773
1	1679	7774
1	1718	7775
1	1755	7776
1	1787	7777
1	1809	7778
1	1825	7779
1	1842	7780
1	1845	7781
1	1850	7782
1	1844	7783
1	1831	7784
1	1817	7785
1	1806	7786
1	1795	7787
1	1791	7788
1	1777	7789
1	1766	7790
1	1757	7791
1	1751	7792
1	1739	7793
1	1737	7794
1	1721	7795
1	1700	7796
1	1686	7797
1	1676	7798
1	1670	7799
1	1668	7800
1	1674	7801
1	1677	7802
1	1682	7803
1	1686	7804
1	1695	7805
1	1706	7806
1	1717	7807
1	1731	7808
1	1751	7809
1	1769	7810
1	1780	7811
1	1795	7812
1	1817	7813
1	1839	7814
1	1854	7815
1	1860	7816
1	1863	7817
1	1856	7818
1	1843	7819
1	1836	7820
1	1832	7821
1	1835	7822
1	1849	7823
1	1873	7824
1	1890	7825
1	1897	7826
1	1906	7827
1	1913	7828
1	1920	7829
1	1926	7830
1	1932	7831
1	1932	7832
1	1934	7833
1	1931	7834
1	1936	7835
1	1945	7836
1	1946	7837
1	1940	7838
1	1940	7839
1	1937	7840
1	1934	7841
1	1926	7842
1	1924	7843
1	1907	7844
1	1886	7845
1	1869	7846
1	1859	7847
1	1853	7848
1	1845	7849
1	1843	7850
1	1843	7851
1	1846	7852
1	1849	7853
1	1860	7854
1	1862	7855
1	1863	7856
1	1859	7857
1	1860	7858
1	1850	7859
1	1834	7860
1	1818	7861
1	1817	7862
1	1825	7863
1	1830	7864
1	1843	7865
1	1855	7866
1	1869	7867
1	1873	7868
1	1904	7869
1	1922	7870
1	1946	7871
1	1963	7872
1	1972	7873
1	1980	7874
1	1990	7875
1	2001	7876
1	2019	7877
1	2039	7878
1	2052	7879
1	2052	7880
1	2045	7881
1	2026	7882
1	2000	7883
1	1994	7884
1	1985	7885
1	1981	7886
1	1982	7887
1	1978	7888
1	1971	7889
1	1962	7890
1	1961	7891
1	1967	7892
1	1974	7893
1	1973	7894
1	1974	7895
1	1985	7896
1	2000	7897
1	2006	7898
1	2029	7899
1	2034	7900
1	2038	7901
1	2043	7902
1	2042	7903
1	2032	7904
1	2016	7905
1	1994	7906
1	1968	7907
1	1944	7908
1	1913	7909
1	1886	7910
1	1862	7911
1	1843	7912
1	1816	7913
1	1816	7914
1	1801	7915
1	1791	7916
1	1778	7917
1	1769	7918
1	1766	7919
1	1764	7920
1	1763	7921
1	1761	7922
1	1759	7923
1	1751	7924
1	1744	7925
1	1742	7926
1	1746	7927
1	1746	7928
1	1772	7929
1	1785	7930
1	1800	7931
1	1824	7932
1	1844	7933
1	1860	7934
1	1873	7935
1	1871	7936
1	1861	7937
1	1836	7938
1	1791	7939
1	1752	7940
1	1712	7941
1	1685	7942
1	1655	7943
1	1626	7944
1	1607	7945
1	1594	7946
1	1595	7947
1	1616	7948
1	1644	7949
1	1682	7950
1	1715	7951
1	1760	7952
1	1799	7953
1	1826	7954
1	1842	7955
1	1852	7956
1	1859	7957
1	1849	7958
1	1850	7959
1	1831	7960
1	1809	7961
1	1789	7962
1	1770	7963
1	1764	7964
1	1752	7965
1	1742	7966
1	1733	7967
1	1716	7968
1	1693	7969
1	1683	7970
1	1683	7971
1	1687	7972
1	1688	7973
1	1705	7974
1	1710	7975
1	1713	7976
1	1718	7977
1	1723	7978
1	1730	7979
1	1730	7980
1	1723	7981
1	1715	7982
1	1706	7983
1	1685	7984
1	1664	7985
1	1645	7986
1	1628	7987
1	1607	7988
1	1608	7989
1	1605	7990
1	1605	7991
1	1608	7992
1	1620	7993
1	1633	7994
1	1643	7995
1	1651	7996
1	1662	7997
1	1672	7998
1	1678	7999
1	1686	8000
1	1697	8000
1	1710	8002
1	1719	8003
1	1735	8004
1	1734	8005
1	1737	8006
1	1743	8007
1	1752	8008
1	1755	8009
1	1755	8010
1	1751	8011
1	1746	8012
1	1738	8013
1	1715	8013
1	1699	8015
1	1678	8016
1	1662	8016
1	1647	8018
1	1636	8019
1	1621	8020
1	1607	8021
1	1605	8022
1	1604	8023
1	1602	8024
1	1607	8025
1	1616	8026
1	1634	8027
1	1651	8028
1	1665	8029
1	1685	8029
1	1698	8031
1	1714	8032
1	1723	8032
1	1733	8034
1	1728	8035
1	1715	8036
1	1699	8037
1	1675	8038
1	1659	8039
1	1634	8040
1	1610	8041
1	1603	8042
1	1602	8043
1	1607	8044
1	1611	8045
1	1621	8045
1	1634	8047
1	1642	8048
1	1647	8048
1	1658	8050
1	1678	8051
1	1711	8052
1	1746	8053
1	1765	8054
1	1774	8055
1	1770	8056
1	1764	8057
1	1750	8058
1	1726	8059
1	1712	8060
1	1707	8061
1	1711	8061
1	1709	8063
1	1703	8064
1	1686	8064
1	1674	8066
1	1665	8067
1	1663	8068
1	1665	8069
1	1674	8070
1	1687	8071
1	1712	8072
1	1738	8073
1	1747	8074
1	1757	8074
1	1759	8076
1	1754	8077
1	1746	8077
1	1747	8079
1	1738	8080
1	1729	8080
1	1721	8082
1	1712	8083
1	1705	8084
1	1702	8085
1	1706	8086
1	1712	8087
1	1735	8088
1	1747	8089
1	1766	8090
1	1782	8090
1	1800	8092
1	1815	8093
1	1816	8093
1	1791	8095
1	1754	8096
1	1713	8096
1	1674	8098
1	1638	8099
1	1607	8100
1	1580	8101
1	1561	8102
1	1548	8103
1	1530	8104
1	1521	8105
1	1515	8106
1	1521	8106
1	1535	8108
1	1560	8109
1	1583	8109
1	1608	8111
1	1643	8112
1	1683	8113
1	1724	8114
1	1763	8115
1	1796	8116
1	1817	8117
1	1816	8118
1	1795	8119
1	1780	8120
1	1763	8121
1	1744	8122
1	1729	8122
1	1722	8124
1	1718	8125
1	1721	8125
1	1721	8127
1	1712	8128
1	1697	8129
1	1685	8130
1	1669	8131
1	1661	8132
1	1648	8133
1	1621	8134
1	1596	8135
1	1578	8136
1	1566	8137
1	1563	8138
1	1565	8138
1	1555	8140
1	1559	8141
1	1572	8141
1	1583	8143
1	1593	8144
1	1603	8145
1	1613	8146
1	1625	8147
1	1636	8148
1	1649	8149
1	1661	8150
1	1674	8151
1	1683	8152
1	1687	8153
1	1695	8154
1	1699	8154
1	1701	8156
1	1703	8157
1	1713	8157
1	1725	8159
1	1736	8160
1	1750	8161
1	1764	8162
1	1773	8163
1	1760	8164
1	1737	8165
1	1709	8166
1	1680	8167
1	1657	8168
1	1647	8169
1	1643	8170
1	1638	8170
1	1639	8172
1	1634	8173
1	1634	8173
1	1629	8175
1	1622	8176
1	1618	8177
1	1624	8178
1	1634	8179
1	1656	8200
1	1678	8201
1	1692	8202
1	1698	8203
1	1700	8204
1	1694	8205
1	1683	8206
1	1663	8207
1	1639	8208
1	1620	8209
1	1607	8210
1	1597	8211
1	1592	8212
1	1590	8213
1	1587	8214
1	1593	8215
1	1605	8216
1	1611	8217
1	1621	8218
1	1638	8219
1	1652	8200
1	1665	8201
1	1686	8202
1	1703	8203
1	1721	8204
1	1737	8205
1	1740	8206
1	1738	8207
1	1729	8208
1	1712	8209
1	1699	8210
1	1688	8211
1	1679	8212
1	1672	8213
1	1674	8214
1	1672	8215
1	1677	8216
1	1680	8217
1	1684	8218
1	1684	8219
1	1674	8220
1	1659	8221
1	1635	8222
1	1607	8223
1	1573	8224
1	1553	8225
1	1539	8226
1	1538	8227
1	1549	8228
1	1581	8229
1	1615	8230
1	1651	8231
1	1687	8232
1	1719	8233
1	1750	8234
1	1778	8235
1	1811	8236
1	1838	8237
1	1854	8238
1	1847	8239
1	1832	8240
1	1798	8241
1	1769	8242
1	1746	8243
1	1729	8244
1	1718	8245
1	1712	8246
1	1706	8247
1	1708	8248
1	1723	8249
1	1739	8250
1	1760	8251
1	1787	8252
1	1808	8253
1	1808	8254
1	1799	8255
1	1791	8256
1	1775	8257
1	1760	8258
1	1752	8259
1	1744	8260
1	1737	8261
1	1728	8262
1	1712	8263
1	1693	8264
1	1674	8265
1	1656	8266
1	1642	8267
1	1626	8268
1	1600	8269
1	1579	8270
1	1564	8271
1	1562	8272
1	1567	8273
1	1569	8274
1	1596	8275
1	1615	8276
1	1631	8277
1	1641	8278
1	1657	8279
1	1643	8300
1	1616	8301
1	1598	8302
1	1581	8303
1	1571	8304
1	1566	8305
1	1566	8306
1	1570	8307
1	1584	8308
1	1611	8309
1	1644	8310
1	1675	8311
1	1705	8312
1	1729	8313
1	1737	8314
1	1737	8315
1	1729	8316
1	1718	8317
1	1711	8318
1	1706	8319
1	1670	8280
1	1685	8281
1	1697	8282
1	1701	8283
1	1687	8284
1	1675	8285
1	1662	8286
1	1656	8287
1	1647	8288
1	1643	8289
1	1638	8290
1	1647	8291
1	1662	8292
1	1681	8293
1	1695	8294
1	1703	8295
1	1704	8296
1	1695	8297
1	1686	8298
1	1665	8299
1	1690	8320
1	1671	8321
1	1656	8322
1	1636	8323
1	1622	8324
1	1604	8325
1	1587	8326
1	1572	8327
1	1559	8328
1	1544	8329
1	1538	8330
1	1529	8331
1	1528	8332
1	1526	8333
1	1533	8334
1	1543	8335
1	1553	8336
1	1561	8337
1	1572	8338
1	1581	8339
1	1592	8340
1	1618	8341
1	1651	8342
1	1680	8343
1	1700	8344
1	1711	8345
1	1712	8346
1	1710	8347
1	1704	8348
1	1699	8349
1	1698	8350
1	1697	8351
1	1693	8352
1	1695	8353
1	1691	8354
1	1697	8355
1	1712	8356
1	1729	8357
1	1750	8358
1	1760	8359
1	1574	8380
1	1583	8381
1	1598	8382
1	1612	8383
1	1634	8384
1	1656	8385
1	1679	8386
1	1703	8387
1	1735	8388
1	1756	8389
1	1791	8390
1	1832	8391
1	1869	8392
1	1897	8393
1	1917	8394
1	1919	8395
1	1908	8396
1	1890	8397
1	1856	8398
1	1818	8399
1	1767	8380
1	1778	8381
1	1779	8382
1	1775	8383
1	1767	8384
1	1754	8385
1	1738	8386
1	1713	8387
1	1685	8388
1	1655	8389
1	1629	8390
1	1605	8391
1	1585	8392
1	1567	8393
1	1546	8394
1	1530	8395
1	1529	8396
1	1535	8397
1	1544	8398
1	1563	8399
1	1777	8400
1	1742	8401
1	1712	8402
1	1684	8403
1	1661	8404
1	1657	8405
1	1661	8406
1	1670	8407
1	1682	8408
1	1697	8409
1	1705	8410
1	1718	8411
1	1733	8412
1	1744	8413
1	1752	8414
1	1751	8415
1	1746	8416
1	1741	8417
1	1737	8418
1	1713	8419
1	1688	8420
1	1661	8421
1	1645	8422
1	1629	8423
1	1620	8424
1	1612	8425
1	1606	8426
1	1599	8427
1	1602	8428
1	1610	8429
1	1629	8430
1	1648	8431
1	1671	8432
1	1697	8433
1	1711	8434
1	1734	8435
1	1751	8436
1	1763	8437
1	1772	8438
1	1790	8439
1	1791	8440
1	1778	8441
1	1772	8442
1	1749	8443
1	1731	8444
1	1703	8445
1	1671	8446
1	1644	8447
1	1618	8448
1	1598	8449
1	1587	8450
1	1589	8451
1	1597	8452
1	1608	8453
1	1624	8454
1	1635	8455
1	1656	8456
1	1682	8457
1	1712	8458
1	1733	8459
1	1600	8480
1	1596	8481
1	1606	8482
1	1621	8483
1	1644	8484
1	1660	8485
1	1679	8486
1	1693	8487
1	1711	8488
1	1734	8489
1	1760	8490
1	1788	8491
1	1823	8492
1	1856	8493
1	1879	8494
1	1896	8495
1	1907	8496
1	1900	8497
1	1883	8498
1	1862	8499
1	1741	8460
1	1750	8461
1	1756	8462
1	1760	8463
1	1746	8464
1	1733	8465
1	1709	8466
1	1674	8467
1	1638	8468
1	1620	8469
1	1600	8470
1	1594	8471
1	1607	8472
1	1620	8473
1	1633	8474
1	1636	8475
1	1635	8476
1	1633	8477
1	1625	8478
1	1611	8479
1	1829	8500
1	1791	8501
1	1762	8502
1	1728	8503
1	1698	8504
1	1674	8505
1	1664	8506
1	1664	8507
1	1669	8508
1	1673	8509
1	1689	8510
1	1720	8511
1	1751	8512
1	1789	8513
1	1820	8514
1	1838	8515
1	1842	8516
1	1837	8517
1	1829	8518
1	1809	8519
1	1778	8520
1	1747	8521
1	1725	8522
1	1710	8523
1	1692	8524
1	1686	8525
1	1683	8526
1	1683	8527
1	1686	8528
1	1703	8529
1	1722	8530
1	1743	8531
1	1760	8532
1	1764	8533
1	1759	8534
1	1747	8535
1	1733	8536
1	1717	8537
1	1704	8538
1	1686	8539
1	1675	8540
1	1674	8541
1	1686	8542
1	1697	8543
1	1718	8544
1	1736	8545
1	1746	8546
1	1752	8547
1	1764	8548
1	1778	8549
1	1800	8550
1	1835	8551
1	1870	8552
1	1908	8553
1	1936	8554
1	1957	8555
1	1969	8556
1	1969	8557
1	1953	8558
1	1933	8559
1	1894	8560
1	1847	8561
1	1803	8562
1	1760	8563
1	1719	8564
1	1687	8565
1	1661	8566
1	1646	8567
1	1635	8568
1	1633	8569
1	1647	8570
1	1675	8571
1	1717	8572
1	1764	8573
1	1824	8574
1	1869	8575
1	1908	8576
1	1932	8577
1	1934	8578
1	1920	8579
1	1892	8580
1	1859	8581
1	1836	8582
1	1803	8583
1	1764	8584
1	1744	8585
1	1733	8586
1	1729	8587
1	1738	8588
1	1764	8589
1	1795	8590
1	1832	8591
1	1867	8592
1	1895	8593
1	1922	8594
1	1947	8595
1	1961	8596
1	1962	8597
1	1960	8598
1	1940	8599
1	1913	8600
1	1885	8601
1	1857	8602
1	1832	8603
1	1802	8604
1	1772	8605
1	1751	8606
1	1739	8607
1	1737	8608
1	1739	8609
1	1751	8610
1	1775	8611
1	1821	8612
1	1878	8613
1	1934	8614
1	1999	8615
1	2055	8616
1	2101	8617
1	2130	8618
1	2143	8619
1	2134	8620
1	2120	8621
1	2102	8622
1	2071	8623
1	2037	8624
1	1995	8625
1	1957	8626
1	1922	8627
1	1901	8628
1	1882	8629
1	1870	8630
1	1875	8631
1	1883	8632
1	1896	8633
1	1906	8634
1	1901	8635
1	1891	8636
1	1872	8637
1	1854	8638
1	1836	8639
1	1813	8640
1	1800	8641
1	1801	8642
1	1814	8643
1	1824	8644
1	1845	8645
1	1877	8646
1	1909	8647
1	1947	8648
1	1977	8649
1	2009	8650
1	2043	8651
1	2066	8652
1	2083	8653
1	2101	8654
1	2097	8655
1	2088	8656
1	2071	8657
1	2049	8658
1	2002	8659
1	1893	8680
1	1868	8681
1	1842	8682
1	1809	8683
1	1765	8684
1	1731	8685
1	1703	8686
1	1686	8687
1	1675	8688
1	1665	8689
1	1660	8690
1	1660	8691
1	1665	8692
1	1674	8693
1	1686	8694
1	1687	8695
1	1681	8696
1	1668	8697
1	1658	8698
1	1647	8699
1	1949	8660
1	1899	8661
1	1854	8662
1	1800	8663
1	1751	8664
1	1703	8665
1	1661	8666
1	1646	8667
1	1645	8668
1	1652	8669
1	1674	8670
1	1705	8671
1	1738	8672
1	1775	8673
1	1808	8674
1	1841	8675
1	1868	8676
1	1886	8677
1	1895	8678
1	1904	8679
1	1635	8700
1	1626	8701
1	1616	8702
1	1607	8703
1	1607	8704
1	1610	8705
1	1618	8706
1	1625	8707
1	1634	8708
1	1656	8709
1	1674	8710
1	1693	8711
1	1716	8712
1	1738	8713
1	1753	8714
1	1767	8715
1	1780	8716
1	1785	8717
1	1778	8718
1	1761	8719
1	1674	8740
1	1690	8741
1	1715	8742
1	1721	8743
1	1710	8744
1	1687	8745
1	1661	8746
1	1634	8747
1	1605	8748
1	1580	8749
1	1555	8750
1	1542	8751
1	1539	8752
1	1550	8753
1	1567	8754
1	1583	8755
1	1607	8756
1	1625	8757
1	1656	8758
1	1674	8759
1	1742	8720
1	1721	8721
1	1700	8722
1	1674	8723
1	1658	8724
1	1638	8725
1	1622	8726
1	1607	8727
1	1593	8728
1	1579	8729
1	1564	8730
1	1550	8731
1	1542	8732
1	1539	8733
1	1530	8734
1	1535	8735
1	1549	8736
1	1572	8737
1	1607	8738
1	1644	8739
1	1688	8760
1	1701	8761
1	1721	8762
1	1746	8763
1	1764	8764
1	1782	8765
1	1791	8766
1	1783	8767
1	1760	8768
1	1738	8769
1	1721	8770
1	1716	8771
1	1718	8772
1	1724	8773
1	1721	8774
1	1710	8775
1	1692	8776
1	1681	8777
1	1675	8778
1	1664	8779
1	1663	8780
1	1669	8781
1	1683	8782
1	1705	8783
1	1737	8784
1	1759	8785
1	1770	8786
1	1775	8787
1	1782	8788
1	1789	8789
1	1791	8790
1	1792	8791
1	1796	8792
1	1795	8793
1	1778	8794
1	1760	8795
1	1730	8796
1	1697	8797
1	1656	8798
1	1636	8799
1	1605	8800
1	1574	8801
1	1555	8802
1	1539	8803
1	1532	8804
1	1528	8805
1	1520	8806
1	1513	8807
1	1518	8808
1	1517	8809
1	1525	8810
1	1536	8811
1	1555	8812
1	1582	8813
1	1615	8814
1	1639	8815
1	1662	8816
1	1678	8817
1	1686	8818
1	1686	8819
1	1593	8880
1	1589	8881
1	1591	8882
1	1584	8883
1	1590	8884
1	1598	8885
1	1620	8886
1	1636	8887
1	1668	8888
1	1692	8889
1	1718	8890
1	1751	8891
1	1787	8892
1	1818	8893
1	1833	8894
1	1842	8895
1	1841	8896
1	1838	8897
1	1836	8898
1	1833	8899
1	1686	8860
1	1686	8861
1	1687	8862
1	1688	8863
1	1675	8864
1	1672	8865
1	1672	8866
1	1676	8867
1	1683	8868
1	1690	8869
1	1690	8870
1	1688	8871
1	1686	8872
1	1680	8873
1	1671	8874
1	1664	8875
1	1654	8876
1	1641	8877
1	1623	8878
1	1605	8879
1	1854	8900
1	1839	8901
1	1827	8902
1	1813	8903
1	1787	8904
1	1764	8905
1	1746	8906
1	1729	8907
1	1719	8908
1	1723	8909
1	1729	8910
1	1737	8911
1	1736	8912
1	1730	8913
1	1724	8914
1	1712	8915
1	1693	8916
1	1672	8917
1	1656	8918
1	1638	8919
1	1628	8900
1	1619	8901
1	1616	8902
1	1612	8903
1	1620	8904
1	1626	8905
1	1632	8906
1	1628	8907
1	1620	8908
1	1616	8909
1	1621	8910
1	1643	8911
1	1674	8912
1	1710	8913
1	1736	8914
1	1759	8915
1	1781	8916
1	1791	8917
1	1795	8918
1	1793	8919
1	1818	8880
1	1802	8881
1	1787	8882
1	1764	8883
1	1736	8884
1	1708	8885
1	1684	8886
1	1662	8887
1	1647	8888
1	1638	8889
1	1638	8890
1	1646	8891
1	1664	8892
1	1695	8893
1	1740	8894
1	1787	8895
1	1829	8896
1	1856	8897
1	1869	8898
1	1868	8899
1	1778	8920
1	1760	8921
1	1747	8922
1	1736	8923
1	1728	8924
1	1726	8925
1	1733	8926
1	1751	8927
1	1778	8928
1	1811	8929
1	1848	8930
1	1893	8931
1	1938	8932
1	1984	8933
1	2028	8934
1	2057	8935
1	2071	8936
1	2076	8937
1	2070	8938
1	2054	8939
1	2026	8940
1	2000	8941
1	1973	8942
1	1940	8943
1	1913	8944
1	1893	8945
1	1869	8946
1	1847	8947
1	1826	8948
1	1801	8949
1	1778	8950
1	1756	8951
1	1742	8952
1	1741	8953
1	1751	8954
1	1760	8955
1	1775	8956
1	1791	8957
1	1809	8958
1	1796	8959
1	1782	8960
1	1762	8961
1	1744	8962
1	1737	8963
1	1737	8964
1	1736	8965
1	1741	8966
1	1759	8967
1	1785	8968
1	1818	8969
1	1852	8970
1	1888	8971
1	1926	8972
1	1958	8973
1	1974	8974
1	1991	8975
1	1999	8976
1	1998	8977
1	1987	8978
1	1978	8979
1	1959	8980
1	1930	8981
1	1893	8982
1	1844	8983
1	1792	8984
1	1743	8985
1	1701	8986
1	1673	8987
1	1660	8988
1	1657	8989
1	1670	8990
1	1698	8991
1	1738	8992
1	1788	8993
1	1836	8994
1	1867	8995
1	1882	8996
1	1890	8997
1	1900	8998
1	1900	8999
1	1894	9000
1	1884	9001
1	1869	9002
1	1846	9003
1	1817	9004
1	1783	9005
1	1764	9006
1	1746	9007
1	1738	9008
1	1738	9009
1	1741	9010
1	1749	9011
1	1743	9012
1	1737	9013
1	1725	9014
1	1715	9015
1	1711	9016
1	1703	9017
1	1697	9018
1	1685	9019
1	1712	9060
1	1692	9061
1	1680	9062
1	1652	9063
1	1625	9064
1	1604	9065
1	1592	9066
1	1593	9067
1	1609	9068
1	1635	9069
1	1668	9070
1	1702	9071
1	1738	9072
1	1775	9073
1	1814	9074
1	1852	9075
1	1877	9076
1	1884	9077
1	1871	9078
1	1849	9079
1	1818	9060
1	1783	9061
1	1755	9062
1	1729	9063
1	1696	9064
1	1671	9065
1	1656	9066
1	1647	9067
1	1644	9068
1	1646	9069
1	1649	9070
1	1665	9071
1	1686	9072
1	1715	9073
1	1737	9074
1	1757	9075
1	1778	9076
1	1790	9077
1	1796	9078
1	1791	9079
1	1672	9020
1	1661	9021
1	1652	9022
1	1636	9023
1	1625	9024
1	1605	9025
1	1586	9026
1	1573	9027
1	1570	9028
1	1581	9029
1	1603	9030
1	1634	9031
1	1661	9032
1	1687	9033
1	1706	9034
1	1718	9035
1	1727	9036
1	1727	9037
1	1716	9038
1	1721	9039
1	1648	9100
1	1638	9101
1	1634	9102
1	1634	9103
1	1629	9104
1	1622	9105
1	1617	9106
1	1607	9107
1	1603	9108
1	1594	9109
1	1600	9110
1	1616	9111
1	1634	9112
1	1652	9113
1	1674	9114
1	1689	9115
1	1701	9116
1	1708	9117
1	1705	9118
1	1701	9119
1	1786	9100
1	1778	9101
1	1772	9102
1	1761	9103
1	1753	9104
1	1741	9105
1	1735	9106
1	1727	9107
1	1716	9108
1	1706	9109
1	1695	9110
1	1695	9111
1	1703	9112
1	1712	9113
1	1712	9114
1	1708	9115
1	1703	9116
1	1697	9117
1	1685	9118
1	1671	9119
1	1826	9140
1	1818	9141
1	1817	9142
1	1798	9143
1	1790	9144
1	1769	9145
1	1755	9146
1	1746	9147
1	1750	9148
1	1743	9149
1	1742	9150
1	1747	9151
1	1755	9152
1	1765	9153
1	1770	9154
1	1781	9155
1	1787	9156
1	1787	9157
1	1778	9158
1	1766	9159
1	1686	9120
1	1673	9121
1	1663	9122
1	1657	9123
1	1652	9124
1	1660	9125
1	1679	9126
1	1704	9127
1	1735	9128
1	1767	9129
1	1796	9130
1	1824	9131
1	1845	9132
1	1861	9133
1	1872	9134
1	1881	9135
1	1881	9136
1	1870	9137
1	1859	9138
1	1843	9139
1	1751	9160
1	1733	9161
1	1706	9162
1	1674	9163
1	1643	9164
1	1621	9165
1	1607	9166
1	1607	9167
1	1611	9168
1	1621	9169
1	1639	9170
1	1665	9171
1	1695	9172
1	1718	9173
1	1739	9174
1	1755	9175
1	1772	9176
1	1783	9177
1	1791	9178
1	1785	9179
1	1772	9180
1	1760	9181
1	1742	9182
1	1729	9183
1	1712	9184
1	1711	9185
1	1716	9186
1	1724	9187
1	1728	9188
1	1733	9189
1	1733	9190
1	1733	9191
1	1734	9192
1	1739	9193
1	1749	9194
1	1757	9195
1	1759	9196
1	1739	9197
1	1713	9198
1	1681	9199
1	1652	9200
1	1637	9201
1	1634	9202
1	1634	9203
1	1643	9204
1	1643	9205
1	1642	9206
1	1641	9207
1	1647	9208
1	1660	9209
1	1682	9210
1	1709	9211
1	1737	9212
1	1760	9213
1	1767	9214
1	1773	9215
1	1770	9216
1	1764	9217
1	1751	9218
1	1738	9219
1	1719	9220
1	1712	9221
1	1718	9222
1	1728	9223
1	1742	9224
1	1757	9225
1	1768	9226
1	1782	9227
1	1791	9228
1	1800	9229
1	1803	9230
1	1817	9231
1	1827	9232
1	1845	9233
1	1864	9234
1	1872	9235
1	1875	9236
1	1877	9237
1	1875	9238
1	1864	9239
1	1850	9260
1	1843	9261
1	1834	9262
1	1825	9263
1	1816	9264
1	1801	9265
1	1791	9266
1	1782	9267
1	1776	9268
1	1775	9269
1	1781	9270
1	1798	9271
1	1824	9272
1	1864	9273
1	1899	9274
1	1931	9275
1	1948	9276
1	1949	9277
1	1935	9278
1	1901	9279
1	1856	9280
1	1811	9281
1	1767	9282
1	1734	9283
1	1702	9284
1	1690	9285
1	1688	9286
1	1699	9287
1	1719	9288
1	1749	9289
1	1778	9290
1	1817	9291
1	1843	9292
1	1864	9293
1	1871	9294
1	1875	9295
1	1869	9296
1	1860	9297
1	1848	9298
1	1838	9299
1	1856	9300
1	1843	9301
1	1834	9302
1	1826	9303
1	1817	9304
1	1817	9305
1	1814	9306
1	1809	9307
1	1809	9308
1	1802	9309
1	1789	9310
1	1777	9311
1	1773	9312
1	1780	9313
1	1795	9314
1	1821	9315
1	1845	9316
1	1873	9317
1	1913	9318
1	1950	9319
1	1825	9280
1	1816	9281
1	1801	9282
1	1789	9283
1	1764	9284
1	1741	9285
1	1726	9286
1	1715	9287
1	1712	9288
1	1714	9289
1	1726	9290
1	1750	9291
1	1773	9292
1	1800	9293
1	1829	9294
1	1843	9295
1	1853	9296
1	1859	9297
1	1867	9298
1	1864	9299
1	1991	9320
1	2034	9321
1	2073	9322
1	2100	9323
1	2129	9324
1	2146	9325
1	2158	9326
1	2162	9327
1	2161	9328
1	2157	9329
1	2154	9330
1	2155	9331
1	2158	9332
1	2168	9333
1	2159	9334
1	2144	9335
1	2115	9336
1	2075	9337
1	2027	9338
1	2006	9339
1	1976	9340
1	1956	9341
1	1953	9342
1	1953	9343
1	1955	9344
1	1969	9345
1	1979	9346
1	1989	9347
1	1994	9348
1	1994	9349
1	1998	9350
1	2004	9351
1	2022	9352
1	2043	9353
1	2065	9354
1	2079	9355
1	2081	9356
1	2082	9357
1	2081	9358
1	2066	9359
1	2039	9360
1	2007	9361
1	1982	9362
1	1962	9363
1	1944	9364
1	1926	9365
1	1920	9366
1	1914	9367
1	1922	9368
1	1934	9369
1	1944	9370
1	1961	9371
1	1976	9372
1	1989	9373
1	1995	9374
1	1991	9375
1	1984	9376
1	1967	9377
1	1949	9378
1	1924	9379
1	1898	9380
1	1872	9381
1	1849	9382
1	1829	9383
1	1816	9384
1	1797	9385
1	1788	9386
1	1786	9387
1	1791	9388
1	1802	9389
1	1826	9390
1	1857	9391
1	1890	9392
1	1921	9393
1	1937	9394
1	1949	9395
1	1948	9396
1	1935	9397
1	1913	9398
1	1894	9399
1	1864	9400
1	1841	9401
1	1819	9402
1	1803	9403
1	1791	9404
1	1787	9405
1	1778	9406
1	1775	9407
1	1777	9408
1	1776	9409
1	1776	9410
1	1787	9411
1	1800	9412
1	1817	9413
1	1819	9414
1	1814	9415
1	1796	9416
1	1782	9417
1	1767	9418
1	1752	9419
1	1736	9420
1	1719	9421
1	1710	9422
1	1698	9423
1	1685	9424
1	1677	9425
1	1677	9426
1	1675	9427
1	1670	9428
1	1658	9429
1	1636	9430
1	1632	9431
1	1634	9432
1	1647	9433
1	1660	9434
1	1672	9435
1	1677	9436
1	1672	9437
1	1660	9438
1	1643	9439
1	1634	9440
1	1632	9441
1	1620	9442
1	1602	9443
1	1581	9444
1	1554	9445
1	1529	9446
1	1507	9447
1	1503	9448
1	1510	9449
1	1529	9450
1	1555	9451
1	1579	9452
1	1594	9453
1	1598	9454
1	1594	9455
1	1589	9456
1	1579	9457
1	1569	9458
1	1572	9459
1	1726	9480
1	1698	9481
1	1672	9482
1	1647	9483
1	1621	9484
1	1607	9485
1	1606	9486
1	1599	9487
1	1599	9488
1	1612	9489
1	1638	9490
1	1678	9491
1	1735	9492
1	1795	9493
1	1859	9494
1	1913	9495
1	1949	9496
1	1965	9497
1	1961	9498
1	1929	9499
1	1579	9460
1	1585	9461
1	1598	9462
1	1610	9463
1	1631	9464
1	1651	9465
1	1681	9466
1	1707	9467
1	1726	9468
1	1730	9469
1	1736	9470
1	1751	9471
1	1767	9472
1	1782	9473
1	1794	9474
1	1794	9475
1	1791	9476
1	1779	9477
1	1768	9478
1	1753	9479
1	1870	9500
1	1796	9501
1	1724	9502
1	1651	9503
1	1595	9504
1	1550	9505
1	1514	9506
1	1488	9507
1	1471	9508
1	1467	9509
1	1476	9510
1	1503	9511
1	1536	9512
1	1572	9513
1	1597	9514
1	1616	9515
1	1625	9516
1	1620	9517
1	1610	9518
1	1599	9519
1	1489	9540
1	1490	9541
1	1498	9542
1	1503	9543
1	1521	9544
1	1535	9545
1	1555	9546
1	1578	9547
1	1596	9548
1	1613	9549
1	1629	9550
1	1646	9551
1	1659	9552
1	1670	9553
1	1664	9554
1	1657	9555
1	1644	9556
1	1633	9557
1	1623	9558
1	1607	9559
1	1582	9520
1	1572	9521
1	1571	9522
1	1577	9523
1	1580	9524
1	1582	9525
1	1583	9526
1	1589	9527
1	1598	9528
1	1600	9529
1	1603	9530
1	1602	9531
1	1595	9532
1	1586	9533
1	1581	9534
1	1559	9535
1	1541	9536
1	1521	9537
1	1505	9538
1	1494	9539
1	1890	9600
1	1907	9601
1	1924	9602
1	1945	9603
1	1960	9604
1	1974	9605
1	1998	9606
1	2022	9607
1	2038	9608
1	2040	9609
1	2045	9610
1	2062	9611
1	2079	9612
1	2105	9613
1	2129	9614
1	2136	9615
1	2137	9616
1	2127	9617
1	2106	9618
1	2079	9619
1	2052	9600
1	2034	9601
1	2021	9602
1	2012	9603
1	2001	9604
1	1998	9605
1	1996	9606
1	1991	9607
1	1985	9608
1	1973	9609
1	1942	9610
1	1912	9611
1	1881	9612
1	1856	9613
1	1832	9614
1	1810	9615
1	1787	9616
1	1765	9617
1	1746	9618
1	1712	9619
1	1592	9580
1	1581	9581
1	1572	9582
1	1570	9583
1	1574	9584
1	1575	9585
1	1580	9586
1	1586	9587
1	1594	9588
1	1607	9589
1	1620	9590
1	1636	9591
1	1661	9592
1	1695	9593
1	1730	9594
1	1764	9595
1	1795	9596
1	1826	9597
1	1847	9598
1	1869	9599
1	1686	9620
1	1660	9621
1	1642	9622
1	1620	9623
1	1603	9624
1	1581	9625
1	1562	9626
1	1543	9627
1	1525	9628
1	1512	9629
1	1508	9630
1	1526	9631
1	1548	9632
1	1574	9633
1	1592	9634
1	1609	9635
1	1634	9636
1	1651	9637
1	1662	9638
1	1675	9639
1	1672	9640
1	1670	9641
1	1665	9642
1	1652	9643
1	1629	9644
1	1615	9645
1	1607	9646
1	1607	9647
1	1608	9648
1	1613	9649
1	1615	9650
1	1630	9651
1	1644	9652
1	1656	9653
1	1660	9654
1	1659	9655
1	1651	9656
1	1634	9657
1	1631	9658
1	1616	9659
1	1607	9660
1	1605	9661
1	1608	9662
1	1615	9663
1	1625	9664
1	1634	9665
1	1642	9666
1	1644	9667
1	1644	9668
1	1656	9669
1	1660	9670
1	1673	9671
1	1688	9672
1	1708	9673
1	1723	9674
1	1737	9675
1	1746	9676
1	1751	9677
1	1749	9678
1	1734	9679
1	1716	9680
1	1705	9681
1	1688	9682
1	1665	9683
1	1649	9684
1	1634	9685
1	1632	9686
1	1634	9687
1	1645	9688
1	1659	9689
1	1677	9690
1	1701	9691
1	1733	9692
1	1765	9693
1	1802	9694
1	1839	9695
1	1860	9696
1	1869	9697
1	1864	9698
1	1856	9699
1	1835	9700
1	1813	9701
1	1778	9702
1	1752	9703
1	1733	9704
1	1716	9705
1	1711	9706
1	1712	9707
1	1731	9708
1	1750	9709
1	1777	9710
1	1816	9711
1	1844	9712
1	1869	9713
1	1893	9714
1	1901	9715
1	1909	9716
1	1914	9717
1	1917	9718
1	1913	9719
1	2037	9740
1	2021	9741
1	1998	9742
1	1971	9743
1	1950	9744
1	1937	9745
1	1922	9746
1	1909	9747
1	1891	9748
1	1865	9749
1	1845	9750
1	1842	9751
1	1844	9752
1	1854	9753
1	1859	9754
1	1863	9755
1	1864	9756
1	1865	9757
1	1867	9758
1	1867	9759
1	1908	9720
1	1905	9721
1	1899	9722
1	1895	9723
1	1885	9724
1	1883	9725
1	1881	9726
1	1878	9727
1	1884	9728
1	1899	9729
1	1913	9730
1	1934	9731
1	1956	9732
1	1980	9733
1	1998	9734
1	2012	9735
1	2026	9736
1	2040	9737
1	2051	9738
1	2044	9739
1	1879	9760
1	1896	9761
1	1917	9762
1	1939	9763
1	1965	9764
1	1986	9765
1	2003	9766
1	2017	9767
1	2026	9768
1	2022	9769
1	2014	9770
1	2015	9771
1	2012	9772
1	2003	9773
1	1995	9774
1	1973	9775
1	1947	9776
1	1914	9777
1	1889	9778
1	1857	9779
1	1831	9780
1	1802	9781
1	1780	9782
1	1760	9783
1	1738	9784
1	1724	9785
1	1723	9786
1	1730	9787
1	1738	9788
1	1755	9789
1	1769	9790
1	1786	9791
1	1809	9792
1	1832	9793
1	1856	9794
1	1872	9795
1	1893	9796
1	1908	9797
1	1929	9798
1	1944	9799
1	1958	9800
1	1968	9801
1	1967	9802
1	1967	9803
1	1962	9804
1	1948	9805
1	1925	9806
1	1904	9807
1	1879	9808
1	1857	9809
1	1841	9810
1	1828	9811
1	1821	9812
1	1823	9813
1	1823	9814
1	1831	9815
1	1837	9816
1	1836	9817
1	1839	9818
1	1847	9819
1	1857	9820
1	1879	9821
1	1901	9822
1	1922	9823
1	1943	9824
1	1953	9825
1	1965	9826
1	1980	9827
1	2000	9828
1	2009	9829
1	2016	9830
1	2026	9831
1	2030	9832
1	2037	9833
1	2035	9834
1	2013	9835
1	1980	9836
1	1945	9837
1	1908	9838
1	1868	9839
1	1834	9840
1	1793	9841
1	1754	9842
1	1716	9843
1	1685	9844
1	1658	9845
1	1638	9846
1	1627	9847
1	1623	9848
1	1621	9849
1	1626	9850
1	1636	9851
1	1657	9852
1	1686	9853
1	1711	9854
1	1733	9855
1	1746	9856
1	1742	9857
1	1726	9858
1	1692	9859
1	1656	9860
1	1625	9861
1	1607	9862
1	1607	9863
1	1611	9864
1	1620	9865
1	1631	9866
1	1644	9867
1	1660	9868
1	1675	9869
1	1690	9870
1	1708	9871
1	1718	9872
1	1731	9873
1	1738	9874
1	1746	9875
1	1754	9876
1	1752	9877
1	1741	9878
1	1723	9879
1	1695	9880
1	1674	9881
1	1652	9882
1	1631	9883
1	1605	9884
1	1581	9885
1	1562	9886
1	1548	9887
1	1537	9888
1	1523	9889
1	1513	9890
1	1521	9891
1	1534	9892
1	1551	9893
1	1563	9894
1	1569	9895
1	1572	9896
1	1575	9897
1	1572	9898
1	1556	9899
1	1541	9900
1	1528	9901
1	1514	9902
1	1498	9903
1	1472	9904
1	1443	9905
1	1423	9906
1	1409	9907
1	1414	9908
1	1435	9909
1	1450	9910
1	1478	9911
1	1507	9912
1	1542	9913
1	1583	9914
1	1621	9915
1	1652	9916
1	1672	9917
1	1686	9918
1	1690	9919
1	1856	9940
1	1827	9941
1	1800	9942
1	1769	9943
1	1739	9944
1	1728	9945
1	1720	9946
1	1717	9947
1	1718	9948
1	1731	9949
1	1752	9950
1	1790	9951
1	1831	9952
1	1867	9953
1	1895	9954
1	1914	9955
1	1922	9956
1	1917	9957
1	1904	9958
1	1872	9959
1	1700	9920
1	1712	9921
1	1719	9922
1	1719	9923
1	1721	9924
1	1728	9925
1	1737	9926
1	1751	9927
1	1773	9928
1	1809	9929
1	1845	9930
1	1885	9931
1	1916	9932
1	1933	9933
1	1935	9934
1	1930	9935
1	1922	9936
1	1913	9937
1	1897	9938
1	1883	9939
1	1834	9960
1	1791	9961
1	1747	9962
1	1707	9963
1	1673	9964
1	1649	9965
1	1634	9966
1	1626	9967
1	1629	9968
1	1638	9969
1	1649	9970
1	1669	9971
1	1686	9972
1	1697	9973
1	1697	9974
1	1692	9975
1	1686	9976
1	1679	9977
1	1674	9978
1	1660	9979
1	1673	10000
1	1674	10001
1	1675	10002
1	1673	10003
1	1661	10004
1	1655	10005
1	1647	10006
1	1634	10007
1	1630	10008
1	1616	10009
1	1607	10010
1	1595	10011
1	1581	10012
1	1573	10013
1	1572	10014
1	1569	10015
1	1557	10016
1	1543	10017
1	1533	10018
1	1526	10019
1	1655	9980
1	1647	9981
1	1634	9982
1	1620	9983
1	1610	9984
1	1605	9985
1	1597	9986
1	1590	9987
1	1589	9988
1	1598	9989
1	1611	9990
1	1632	9991
1	1651	9992
1	1669	9993
1	1679	9994
1	1686	9995
1	1692	9996
1	1688	9997
1	1685	9998
1	1680	9999
1	1521	10020
1	1521	10021
1	1529	10022
1	1541	10023
1	1555	10024
1	1582	10025
1	1616	10026
1	1649	10027
1	1677	10028
1	1701	10029
1	1722	10030
1	1742	10031
1	1760	10032
1	1770	10033
1	1770	10034
1	1764	10035
1	1748	10036
1	1724	10037
1	1697	10038
1	1661	10039
1	1634	10040
1	1607	10041
1	1584	10042
1	1559	10043
1	1536	10044
1	1527	10045
1	1521	10046
1	1513	10047
1	1516	10048
1	1527	10049
1	1551	10050
1	1587	10051
1	1631	10052
1	1673	10053
1	1701	10054
1	1726	10055
1	1743	10056
1	1752	10057
1	1749	10058
1	1738	10059
1	1718	10060
1	1698	10061
1	1677	10062
1	1655	10063
1	1633	10064
1	1620	10065
1	1620	10066
1	1634	10067
1	1657	10068
1	1686	10069
1	1721	10070
1	1760	10071
1	1791	10072
1	1825	10073
1	1844	10074
1	1847	10075
1	1843	10076
1	1827	10077
1	1799	10078
1	1762	10079
1	1719	10080
1	1684	10081
1	1643	10082
1	1608	10083
1	1582	10084
1	1572	10085
1	1569	10086
1	1575	10087
1	1594	10088
1	1634	10089
1	1677	10090
1	1725	10091
