#Date:= 2024-10-01T15:06:56.377260
#Sampling Rate(Hz):= 1000
#Labels:= LOD	ECG	TS
0	3130	20
0	3130	21
0	3130	22
0	3130	23
0	3130	24
0	3130	25
0	3130	26
0	3130	27
0	3130	28
0	3130	29
0	3130	30
0	3130	31
0	3130	32
0	3130	33
0	3130	34
0	3130	35
0	3130	36
0	3130	37
0	3130	38
0	3130	39
0	3130	40
0	3130	41
0	3130	42
0	3130	43
0	3130	44
0	3130	45
0	3130	46
0	3130	47
0	3130	48
0	3130	49
0	3130	50
0	3130	51
0	3130	52
0	3130	53
0	3130	54
0	3130	55
0	3130	56
0	3130	57
0	3130	58
0	3130	59
0	3130	60
0	3130	61
0	3130	62
0	3130	63
0	3130	64
0	3130	65
0	3130	66
0	3130	67
0	3130	68
0	3130	69
0	3130	70
0	3130	71
0	3130	72
0	3130	73
0	3130	74
0	3130	75
0	3130	76
0	3130	77
0	3130	78
0	3130	79
0	3130	80
0	3130	81
0	3130	82
0	3130	83
0	3130	84
0	3130	85
0	3130	86
0	3130	87
0	3130	88
0	3130	89
0	3130	90
0	3130	91
0	3130	92
0	3130	93
0	3130	94
0	3130	95
0	3130	96
0	3130	97
0	3130	98
0	3130	99
0	3130	100
0	3130	101
0	3130	102
0	3130	103
0	3130	104
0	3130	105
0	3130	106
0	3130	107
0	3130	108
0	3130	109
0	3130	110
0	3130	111
0	3130	112
0	3130	113
0	3130	114
0	3130	115
0	3130	116
0	3130	117
0	3130	118
0	3130	119
0	3130	140
0	3130	141
0	3130	142
0	3130	143
0	3130	144
0	3130	145
0	3130	146
0	3130	147
0	3130	148
0	3130	149
0	3130	150
0	3130	151
0	3130	152
0	3130	153
0	3130	154
0	3130	155
0	3130	156
0	3130	157
0	3130	158
0	3130	159
0	3130	120
0	3130	121
0	3130	122
0	3130	123
0	3130	124
0	3130	125
0	3130	126
0	3130	127
0	3130	128
0	3130	129
0	3130	130
0	3130	131
0	3130	132
0	3130	133
0	3130	134
0	3130	135
0	3130	136
0	3130	137
0	3130	138
0	3130	139
0	3130	160
0	3130	161
0	3130	162
0	3130	163
0	3130	164
0	3130	165
0	3130	166
0	3130	167
0	3130	168
0	3130	169
0	3130	170
0	3130	171
0	3130	172
0	3130	173
0	3130	174
0	3130	175
0	3130	176
0	3130	177
0	3130	178
0	3130	179
0	3130	180
0	3130	181
0	3130	182
0	3130	183
0	3130	184
0	3130	185
0	3130	186
0	3130	187
0	3130	188
0	3130	189
0	3130	190
0	3130	191
0	3130	192
0	3130	193
0	3130	194
0	3130	195
0	3130	196
0	3130	197
0	3130	198
0	3130	199
0	3130	200
0	3130	201
0	3130	202
0	3130	203
0	3130	204
0	3130	205
0	3130	206
0	3130	207
0	3130	208
0	3130	209
0	3130	210
0	3130	211
0	3130	212
0	3130	213
0	3130	214
0	3130	215
0	3130	216
0	3130	217
0	3130	218
0	3130	219
0	3130	220
0	3130	221
0	3130	222
0	3130	223
0	3130	224
0	3130	225
0	3130	226
0	3130	227
0	3130	228
0	3130	229
0	3130	230
0	3130	231
0	3130	232
0	3130	233
0	3130	234
0	3130	235
0	3130	236
0	3130	237
0	3130	238
0	3130	239
0	3130	240
0	3130	241
0	3130	242
0	3130	243
0	3130	244
0	3130	245
0	3130	246
0	3130	247
0	3130	248
0	3130	249
0	3130	250
0	3130	251
0	3130	252
0	3130	253
0	3130	254
0	3130	255
0	3130	256
0	3130	257
0	3130	258
0	3130	259
0	3130	260
0	3130	261
0	3130	262
0	3130	263
0	3130	264
0	3130	265
0	3130	266
0	3130	267
0	3130	268
0	3130	269
0	3130	270
0	3130	271
0	3130	272
0	3130	273
0	3130	274
0	3130	275
0	3130	276
0	3130	277
0	3130	278
0	3130	279
0	3130	280
0	3130	281
0	3130	282
0	3130	283
0	3130	284
0	3130	285
0	3130	286
0	3130	287
0	3130	288
0	3130	289
0	3130	290
0	3130	291
0	3130	292
0	3130	293
0	3130	294
0	3130	295
0	3130	296
0	3130	297
0	3130	298
0	3130	299
0	3130	300
0	3130	301
0	3130	302
0	3130	303
0	3130	304
0	3130	305
0	3130	306
0	3130	307
0	3130	308
0	3130	309
0	3130	310
0	3130	311
0	3130	312
0	3130	313
0	3130	314
0	3130	315
0	3130	316
0	3130	317
0	3130	318
0	3130	319
0	3130	320
0	3130	321
0	3130	322
0	3130	323
0	3130	324
0	3130	325
0	3130	326
0	3130	327
0	3130	328
0	3130	329
0	3130	330
0	3130	331
0	3130	332
0	3130	333
0	3130	334
0	3130	335
0	3130	336
0	3130	337
0	3130	338
0	3130	339
0	3130	340
0	3130	341
0	3130	342
0	3130	343
0	3130	344
0	3130	345
0	3130	346
0	3130	347
0	3130	348
0	3130	349
0	3130	350
0	3130	351
0	3130	352
0	3130	353
0	3130	354
0	3130	355
0	3130	356
0	3130	357
0	3130	358
0	3130	359
0	3130	360
0	3130	361
0	3130	362
0	3130	363
0	3130	364
0	3130	365
0	3130	366
0	3130	367
0	3130	368
0	3130	369
0	3130	370
0	3130	371
0	3130	372
0	3130	373
0	3130	374
0	3130	375
0	3130	376
0	3130	377
0	3130	378
0	3130	379
0	3130	380
0	3130	381
0	3130	382
0	3130	383
0	3130	384
0	3130	385
0	3130	386
0	3130	387
0	3130	388
0	3130	389
0	3130	390
0	3130	391
0	3130	392
0	3130	393
0	3130	394
0	3130	395
0	3130	396
0	3130	397
0	3130	398
0	3130	399
0	3130	400
0	3130	401
0	3130	402
0	3130	403
0	3130	404
0	3130	405
0	3130	406
0	3130	407
0	3130	408
0	3130	409
0	3130	410
0	3130	411
0	3130	412
0	3130	413
0	3130	414
0	3130	415
0	3130	416
0	3130	417
0	3130	418
0	3130	419
0	3130	420
0	3130	421
0	3130	422
0	3130	423
0	3130	424
0	3130	425
0	3130	426
0	3130	427
0	3130	428
0	3130	429
0	3130	430
0	3130	431
0	3130	432
0	3130	433
0	3130	434
0	3130	435
0	3130	436
0	3130	437
0	3130	438
0	3130	439
0	3130	440
0	3130	441
0	3130	442
0	3130	443
0	3130	444
0	3130	445
0	3130	446
0	3130	447
0	3130	448
0	3130	449
0	3130	450
0	3130	451
0	3130	452
0	3130	453
0	3130	454
0	3130	455
0	3130	456
0	3130	457
0	3130	458
0	3130	459
0	3130	460
0	3130	461
0	3130	462
0	3130	463
0	3130	464
0	3130	465
0	3130	466
0	3130	467
0	3130	468
0	3130	469
0	3130	470
0	3130	471
0	3130	472
0	3130	473
0	3130	474
0	3130	475
0	3130	476
0	3130	477
0	3130	478
0	3130	479
0	3130	480
0	3130	481
0	3130	482
0	3130	483
0	3130	484
0	3130	485
0	3130	486
0	3130	487
0	3130	488
0	3130	489
0	3130	490
0	3130	491
0	3130	492
0	3130	493
0	3130	494
0	3130	495
0	3130	496
0	3130	497
0	3130	498
0	3130	499
0	3130	500
0	3130	501
0	3130	502
0	3130	503
0	3130	504
0	3130	505
0	3130	506
0	3130	507
0	3130	508
0	3130	509
0	3130	510
0	3130	511
0	3130	512
0	3130	513
0	3130	514
0	3130	515
0	3130	516
0	3130	517
0	3130	518
0	3130	519
0	3130	520
0	3130	521
0	3130	522
0	3130	523
0	3130	524
0	3130	525
0	3130	526
0	3130	527
0	3130	528
0	3130	529
0	3130	530
0	3130	531
0	3130	532
0	3130	533
0	3130	534
0	3130	535
0	3130	536
0	3130	537
0	3130	538
0	3130	539
0	3130	540
0	3130	541
0	3130	542
0	3130	543
0	3130	544
0	3130	545
0	3130	546
0	3130	547
0	3130	548
0	3130	549
0	3130	550
0	3130	551
0	3130	552
0	3130	553
0	3130	554
0	3130	555
0	3130	556
0	3130	557
0	3130	558
0	3130	559
0	3130	560
0	3130	561
0	3130	562
0	3130	563
0	3130	564
0	3130	565
0	3130	566
0	3130	567
0	3130	568
0	3130	569
0	3130	570
0	3130	571
0	3130	572
0	3130	573
0	3130	574
0	3130	575
0	3130	576
0	3130	577
0	3130	578
0	3130	579
0	3130	580
0	3130	581
0	3130	582
0	3130	583
0	3130	584
0	3130	585
0	3130	586
0	3130	587
0	3130	588
0	3130	589
0	3130	590
0	3130	591
0	3130	592
0	3130	593
0	3130	594
0	3130	595
0	3130	596
0	3130	597
0	3130	598
0	3130	599
1	3130	600
1	3130	601
1	3130	602
1	3130	603
1	3130	604
1	3130	605
1	3130	606
1	3130	607
1	3130	608
1	3130	609
1	3130	610
1	3130	611
1	3130	612
1	3130	613
1	3130	614
1	3130	615
1	3130	616
1	3130	617
1	3130	618
1	3130	619
1	3041	620
1	2971	621
1	2942	622
1	2958	623
1	2947	624
1	2870	625
1	2799	626
1	2707	627
1	2561	628
1	2356	629
1	2144	630
1	1913	631
1	1686	632
1	1477	633
1	1278	634
1	1110	635
1	959	636
1	872	637
1	857	638
1	914	639
1	1034	640
1	1197	641
1	1395	642
1	1602	643
1	1764	644
1	1888	645
1	1989	646
1	2030	647
1	2042	648
1	2005	649
1	1940	650
1	1856	651
1	1738	652
1	1658	653
1	1557	654
1	1466	655
1	1380	656
1	1327	657
1	1310	658
1	1330	659
1	1384	660
1	1469	661
1	1566	662
1	1669	663
1	1764	664
1	1832	665
1	1885	666
1	1908	667
1	1904	668
1	1888	669
1	1849	670
1	1793	671
1	1744	672
1	1691	673
1	1634	674
1	1584	675
1	1537	676
1	1502	677
1	1485	678
1	1490	679
1	1512	680
1	1549	681
1	1592	682
1	1638	683
1	1690	684
1	1733	685
1	1769	686
1	1800	687
1	1812	688
1	1812	689
1	1791	690
1	1767	691
1	1740	692
1	1710	693
1	1682	694
1	1659	695
1	1634	696
1	1607	697
1	1594	698
1	1587	699
1	1592	700
1	1605	701
1	1624	702
1	1645	703
1	1675	704
1	1711	705
1	1741	706
1	1769	707
1	1791	708
1	1808	709
1	1815	710
1	1815	711
1	1803	712
1	1791	713
1	1790	714
1	1803	715
1	1818	716
1	1825	717
1	1821	718
1	1817	719
0	1799	720
0	1776	721
0	1734	722
0	1672	723
0	1655	724
0	1713	725
0	1769	726
0	1869	727
0	1957	728
0	2070	729
0	2201	730
0	2341	731
0	2533	732
0	2658	733
0	2844	734
0	3130	735
0	3130	736
0	3121	737
0	2663	738
0	2269	739
0	1749	740
0	1075	741
0	378	742
0	128	743
0	128	744
0	546	745
0	626	746
0	128	747
0	128	748
0	128	749
0	128	750
0	128	751
0	128	752
0	128	753
0	128	754
0	128	755
0	128	756
0	128	757
0	128	758
0	128	759
1	128	760
1	128	761
1	128	762
1	128	763
1	128	764
1	128	765
1	128	766
1	128	767
1	128	768
1	128	769
1	128	770
1	128	771
1	128	772
1	128	773
1	128	774
1	128	775
1	128	776
1	128	777
1	128	778
1	128	779
1	128	780
1	128	781
1	128	782
1	128	783
1	128	784
1	128	785
1	128	786
1	128	787
1	128	788
1	128	789
1	128	790
1	128	791
1	128	792
1	128	793
1	128	794
1	128	795
1	128	796
1	128	797
1	128	798
1	128	799
1	128	800
1	128	801
1	128	802
1	128	803
1	128	804
1	128	805
1	128	806
1	128	807
1	128	808
1	128	809
1	128	810
1	128	811
1	128	812
1	128	813
1	128	814
1	128	815
1	128	816
1	128	817
1	128	818
1	128	819
1	128	820
1	128	821
1	128	822
1	128	823
1	128	824
1	128	825
1	198	826
1	386	827
1	577	828
1	774	829
1	953	830
1	1127	831
1	1267	832
1	1383	833
1	1482	834
1	1560	835
1	1620	836
1	1656	837
1	1674	838
1	1679	839
1	1675	840
1	1665	841
1	1661	842
1	1651	843
1	1646	844
1	1647	845
1	1647	846
1	1646	847
1	1647	848
1	1647	849
1	1647	850
1	1648	851
1	1649	852
1	1647	853
1	1646	854
1	1647	855
1	1643	856
1	1639	857
1	1638	858
1	1634	859
1	1634	860
1	1634	861
1	1631	862
1	1633	863
1	1638	864
1	1647	865
1	1654	866
1	1667	867
1	1671	868
1	1675	869
1	1677	870
1	1675	871
1	1674	872
1	1671	873
1	1667	874
1	1662	875
1	1661	876
1	1651	877
1	1647	878
1	1644	879
1	1659	900
1	1657	901
1	1656	902
1	1660	903
1	1661	904
1	1667	905
1	1674	906
1	1670	907
1	1674	908
1	1675	909
1	1677	910
1	1678	911
1	1679	912
1	1676	913
1	1674	914
1	1674	915
1	1672	916
1	1671	917
1	1668	918
1	1663	919
1	1643	880
1	1644	881
1	1650	882
1	1657	883
1	1661	884
1	1669	885
1	1679	886
1	1684	887
1	1686	888
1	1688	889
1	1688	890
1	1687	891
1	1681	892
1	1674	893
1	1673	894
1	1669	895
1	1668	896
1	1668	897
1	1664	898
1	1661	899
1	1660	920
1	1660	921
1	1652	922
1	1651	923
1	1656	924
1	1660	925
1	1664	926
1	1678	927
1	1683	928
1	1679	929
1	1681	930
1	1683	931
1	1664	932
1	1626	933
1	1577	934
1	1549	935
1	1515	936
1	1454	937
1	1361	938
1	1218	939
1	1028	940
1	790	941
1	534	942
1	269	943
1	128	944
1	128	945
1	128	946
1	128	947
1	219	948
1	422	949
1	643	950
1	857	951
1	1069	952
1	1166	953
1	1230	954
1	1263	955
1	1255	956
1	1190	957
1	1062	958
1	872	959
1	638	960
1	378	961
1	129	962
1	128	963
1	128	964
1	128	965
1	128	966
1	128	967
1	128	968
1	217	969
1	364	970
1	508	971
1	623	972
1	688	973
1	702	974
1	682	975
1	625	976
1	513	977
1	353	978
1	144	979
1	128	980
1	128	981
1	128	982
1	128	983
1	128	984
1	128	985
1	128	986
1	128	987
1	128	988
1	128	989
1	128	990
1	128	991
1	128	992
1	128	993
1	128	994
1	128	995
1	128	996
1	128	997
1	128	998
1	128	999
1	128	1000
1	128	1001
1	128	1002
1	128	1003
1	128	1004
1	128	1005
1	128	1006
1	128	1007
1	128	1008
1	128	1009
1	128	1010
1	128	1011
1	128	1012
1	128	1013
1	128	1014
1	128	1015
1	128	1016
1	128	1017
1	128	1018
1	128	1019
1	128	1020
1	128	1021
1	128	1022
1	128	1023
1	128	1024
1	128	1025
1	128	1026
1	128	1027
1	128	1028
1	128	1029
1	128	1030
1	128	1031
1	128	1032
1	128	1033
1	128	1034
1	128	1035
1	128	1036
1	128	1037
1	128	1038
1	128	1039
1	128	1040
1	128	1041
1	128	1042
1	128	1043
1	128	1044
1	128	1045
1	128	1046
1	128	1047
1	128	1048
1	128	1049
1	128	1050
1	128	1051
1	128	1052
1	128	1053
1	128	1054
1	128	1055
1	128	1056
1	128	1057
1	128	1058
1	128	1059
1	128	1060
1	128	1061
1	128	1062
1	128	1063
1	128	1064
1	128	1065
1	128	1066
1	128	1067
1	128	1068
1	128	1069
1	128	1070
1	128	1071
1	128	1072
1	128	1073
1	128	1074
1	128	1075
1	128	1076
1	128	1077
1	128	1078
1	128	1079
1	128	1080
1	128	1081
1	128	1082
1	128	1083
1	128	1084
1	128	1085
1	128	1086
1	128	1087
1	128	1088
1	128	1089
1	128	1090
1	128	1091
1	128	1092
1	128	1093
1	128	1094
1	128	1095
1	128	1096
1	128	1097
1	128	1098
1	128	1099
1	128	1100
1	128	1101
1	128	1102
1	128	1103
1	128	1104
1	128	1105
1	128	1106
1	128	1107
1	128	1108
1	128	1109
1	128	1110
1	128	1111
1	128	1112
1	128	1113
1	128	1114
1	128	1115
1	128	1116
1	128	1117
1	128	1118
1	128	1119
1	128	1140
1	128	1141
1	128	1142
1	128	1143
1	128	1144
1	128	1145
1	128	1146
1	128	1147
1	128	1148
1	128	1149
1	128	1150
1	128	1151
1	128	1152
1	128	1153
1	128	1154
1	128	1155
1	128	1156
1	128	1157
1	128	1158
1	128	1159
1	128	1120
1	128	1121
1	128	1122
1	128	1123
1	128	1124
1	128	1125
1	128	1126
1	128	1127
1	128	1128
1	128	1129
1	128	1130
1	128	1131
1	128	1132
1	128	1133
1	128	1134
1	128	1135
1	128	1136
1	128	1137
1	128	1138
1	128	1139
1	128	1160
1	128	1161
1	128	1162
1	128	1163
1	128	1164
1	128	1165
1	128	1166
1	128	1167
1	128	1168
1	128	1169
1	128	1170
1	128	1171
1	128	1172
1	128	1173
1	128	1174
1	128	1175
1	128	1176
1	128	1177
1	128	1178
1	128	1179
1	128	1180
1	128	1181
1	128	1182
1	128	1183
1	128	1184
1	128	1185
1	128	1186
1	128	1187
1	128	1188
1	128	1189
1	128	1190
1	128	1191
1	128	1192
1	128	1193
1	128	1194
1	128	1195
1	128	1196
1	128	1197
1	128	1198
1	128	1199
1	128	1200
1	128	1201
1	128	1202
1	128	1203
1	128	1204
1	128	1205
1	128	1206
1	128	1207
1	128	1208
1	128	1209
1	128	1210
1	128	1211
1	128	1212
1	128	1213
1	128	1214
1	128	1215
1	128	1216
1	128	1217
1	128	1218
1	128	1219
1	128	1220
1	128	1221
1	128	1222
1	128	1223
1	128	1224
1	128	1225
1	128	1226
1	128	1227
1	128	1228
1	128	1229
1	128	1230
1	128	1231
1	128	1232
1	128	1233
1	128	1234
1	128	1235
1	128	1236
1	128	1237
1	128	1238
1	128	1239
1	128	1240
1	128	1241
1	128	1242
1	128	1243
1	128	1244
1	128	1245
1	128	1246
1	128	1247
1	128	1248
1	128	1249
1	128	1250
1	128	1251
1	128	1252
1	128	1253
1	128	1254
1	128	1255
1	128	1256
1	128	1257
1	128	1258
1	128	1259
1	128	1260
1	128	1261
1	128	1262
1	128	1263
1	128	1264
1	128	1265
1	128	1266
1	128	1267
1	128	1268
1	128	1269
1	128	1270
1	128	1271
1	128	1272
1	128	1273
1	128	1274
1	128	1275
1	128	1276
1	128	1277
1	128	1278
1	128	1279
1	128	1280
1	128	1281
1	128	1282
1	128	1283
1	128	1284
1	128	1285
1	128	1286
1	128	1287
1	128	1288
1	128	1289
1	128	1290
1	128	1291
1	128	1292
1	128	1293
1	128	1294
1	128	1295
1	128	1296
1	128	1297
1	128	1298
1	128	1299
1	128	1300
1	128	1301
1	128	1302
1	128	1303
1	128	1304
1	128	1305
1	128	1306
1	128	1307
1	128	1308
1	128	1309
1	128	1310
1	128	1311
1	128	1312
1	128	1313
1	128	1314
1	128	1315
1	128	1316
1	128	1317
1	128	1318
1	128	1319
1	128	1320
1	128	1321
1	128	1322
1	128	1323
1	128	1324
1	128	1325
1	128	1326
1	128	1327
1	128	1328
1	128	1329
1	128	1330
1	128	1331
1	128	1332
1	128	1333
1	128	1334
1	128	1335
1	128	1336
1	128	1337
1	128	1338
1	128	1339
1	128	1340
1	128	1341
1	128	1342
1	128	1343
1	128	1344
1	128	1345
1	128	1346
1	128	1347
1	128	1348
1	128	1349
1	128	1350
1	128	1351
1	128	1352
1	128	1353
1	128	1354
1	128	1355
1	128	1356
1	128	1357
1	128	1358
1	128	1359
1	128	1380
1	128	1381
1	128	1382
1	128	1383
1	128	1384
1	128	1385
1	128	1386
1	128	1387
1	128	1388
1	128	1389
1	128	1390
1	128	1391
1	128	1392
1	128	1393
1	128	1394
1	128	1395
1	128	1396
1	128	1397
1	128	1398
1	128	1399
1	128	1360
1	128	1361
1	128	1362
1	128	1363
1	128	1364
1	128	1365
1	128	1366
1	128	1367
1	128	1368
1	128	1369
1	128	1370
1	128	1371
1	128	1372
1	128	1373
1	128	1374
1	128	1375
1	128	1376
1	128	1377
1	128	1378
1	128	1379
1	128	1400
1	128	1401
1	128	1402
1	128	1403
1	128	1404
1	128	1405
1	128	1406
1	128	1407
1	128	1408
1	128	1409
1	128	1410
1	128	1411
1	128	1412
1	128	1413
1	128	1414
1	128	1415
1	128	1416
1	128	1417
1	128	1418
1	128	1419
1	128	1420
1	128	1421
1	128	1422
1	128	1423
1	128	1424
1	128	1425
1	128	1426
1	128	1427
1	128	1428
1	128	1429
1	128	1430
1	128	1431
1	128	1432
1	128	1433
1	128	1434
1	128	1435
1	128	1436
1	128	1437
1	128	1438
1	128	1439
1	128	1440
1	128	1441
1	128	1442
1	128	1443
1	128	1444
1	128	1445
1	128	1446
1	128	1447
1	128	1448
1	128	1449
1	128	1450
1	128	1451
1	128	1452
1	128	1453
1	128	1454
1	128	1455
1	128	1456
1	128	1457
1	128	1458
1	128	1459
1	128	1460
1	128	1461
1	128	1462
1	128	1463
1	128	1464
1	128	1465
1	128	1466
1	128	1467
1	128	1468
1	128	1469
1	128	1470
1	128	1471
1	128	1472
1	128	1473
1	128	1474
1	128	1475
1	128	1476
1	128	1477
1	128	1478
1	128	1479
1	128	1480
1	128	1481
1	128	1482
1	128	1483
1	128	1484
1	128	1485
1	128	1486
1	128	1487
1	128	1488
1	128	1489
1	128	1490
1	128	1491
1	128	1492
1	128	1493
1	128	1494
1	128	1495
1	128	1496
1	128	1497
1	128	1498
1	128	1499
1	128	1500
1	128	1501
1	128	1502
1	128	1503
1	128	1504
1	128	1505
1	128	1506
1	128	1507
1	128	1508
1	128	1509
1	128	1510
1	128	1511
1	128	1512
1	128	1513
1	128	1514
1	128	1515
1	128	1516
1	207	1517
1	306	1518
1	381	1519
1	436	1520
1	477	1521
1	503	1522
1	509	1523
1	507	1524
1	486	1525
1	460	1526
1	428	1527
1	414	1528
1	415	1529
1	435	1530
1	481	1531
1	529	1532
1	584	1533
1	612	1534
1	634	1535
1	649	1536
1	659	1537
1	683	1538
1	718	1539
1	762	1540
1	796	1541
1	813	1542
1	827	1543
1	851	1544
1	869	1545
1	882	1546
1	890	1547
1	902	1548
1	909	1549
1	914	1550
1	915	1551
1	913	1552
1	914	1553
1	927	1554
1	956	1555
1	1004	1556
1	1049	1557
1	1092	1558
1	1129	1559
1	1164	1560
1	1188	1561
1	1193	1562
1	1180	1563
1	1162	1564
1	1157	1565
1	1166	1566
1	1188	1567
1	1215	1568
1	1235	1569
1	1256	1570
1	1287	1571
1	1319	1572
1	1338	1573
1	1369	1574
1	1409	1575
1	1446	1576
1	1480	1577
1	1505	1578
1	1529	1579
1	1665	1600
1	1670	1601
1	1675	1602
1	1677	1603
1	1683	1604
1	1690	1605
1	1712	1606
1	1737	1607
1	1764	1608
1	1792	1609
1	1830	1610
1	1859	1611
1	1877	1612
1	1895	1613
1	1923	1614
1	1967	1615
1	2003	1616
1	2037	1617
1	2073	1618
1	2109	1619
1	1544	1580
1	1554	1581
1	1558	1582
1	1566	1583
1	1565	1584
1	1565	1585
1	1570	1586
1	1576	1587
1	1577	1588
1	1574	1589
1	1567	1590
1	1554	1591
1	1547	1592
1	1549	1593
1	1580	1594
1	1613	1595
1	1652	1596
1	1670	1597
1	1673	1598
1	1669	1599
1	2338	1640
1	2343	1641
1	2325	1642
1	2307	1643
1	2282	1644
1	2261	1645
1	2249	1646
1	2247	1647
1	2262	1648
1	2276	1649
1	2304	1650
1	2342	1651
1	2390	1652
1	2428	1653
1	2464	1654
1	2495	1655
1	2516	1656
1	2539	1657
1	2559	1658
1	2572	1659
1	2141	1620
1	2158	1621
1	2163	1622
1	2156	1623
1	2128	1624
1	2079	1625
1	2041	1626
1	2010	1627
1	2008	1628
1	2022	1629
1	2041	1630
1	2068	1631
1	2092	1632
1	2111	1633
1	2140	1634
1	2174	1635
1	2207	1636
1	2246	1637
1	2283	1638
1	2314	1639
1	2571	1660
1	2558	1661
1	2546	1662
1	2532	1663
1	2523	1664
1	2516	1665
1	2520	1666
1	2532	1667
1	2549	1668
1	2569	1669
1	2591	1670
1	2616	1671
1	2642	1672
1	2662	1673
1	2696	1674
1	2732	1675
1	2757	1676
1	2764	1677
1	2772	1678
1	2779	1679
1	2787	1680
1	2795	1681
1	2791	1682
1	2770	1683
1	2740	1684
1	2725	1685
1	2714	1686
1	2704	1687
1	2696	1688
1	2698	1689
1	2706	1690
1	2727	1691
1	2747	1692
1	2771	1693
1	2800	1694
1	2841	1695
1	2892	1696
1	2939	1697
1	2962	1698
1	2970	1699
1	2980	1700
1	2987	1701
1	2974	1702
1	2939	1703
1	2890	1704
1	2852	1705
1	2819	1706
1	2793	1707
1	2773	1708
1	2766	1709
1	2769	1710
1	2777	1711
1	2794	1712
1	2818	1713
1	2853	1714
1	2894	1715
1	2939	1716
1	2979	1717
1	3003	1718
1	3021	1719
1	3130	1740
1	3130	1741
1	3130	1742
1	3130	1743
1	3130	1744
1	3130	1745
1	3130	1746
1	3130	1747
1	3130	1748
1	3130	1749
1	3130	1750
1	3130	1751
1	3130	1752
1	3130	1753
1	3130	1754
1	3130	1755
1	3130	1756
1	3130	1757
1	3130	1758
1	3130	1759
1	3027	1720
1	3010	1721
1	2970	1722
1	2935	1723
1	2901	1724
1	2885	1725
1	2890	1726
1	2922	1727
1	2954	1728
1	2990	1729
1	3020	1730
1	3046	1731
1	3070	1732
1	3094	1733
1	3130	1734
1	3130	1735
1	3130	1736
1	3130	1737
1	3130	1738
1	3130	1739
1	3130	1760
1	3130	1761
1	3130	1762
1	3130	1763
1	3130	1764
1	3130	1765
1	3130	1766
1	3130	1767
1	3130	1768
1	3130	1769
1	3130	1770
1	3130	1771
1	3130	1772
1	3130	1773
1	3130	1774
1	3130	1775
1	3130	1776
1	3130	1777
1	3130	1778
1	3130	1779
1	3130	1780
1	3130	1781
1	3130	1782
1	3130	1783
1	3130	1784
1	3130	1785
1	3130	1786
1	3130	1787
1	3130	1788
1	3130	1789
1	3130	1790
1	3130	1791
1	3130	1792
1	3130	1793
1	3130	1794
1	3130	1795
1	3130	1796
1	3130	1797
1	3130	1798
1	3130	1799
1	3130	1800
1	3130	1801
1	3130	1802
1	3130	1803
1	3130	1804
1	3130	1805
1	3130	1806
1	3130	1807
1	3130	1808
1	3130	1809
1	3130	1810
1	3130	1811
1	3130	1812
1	3130	1813
1	3130	1814
1	3130	1815
1	3130	1816
1	3130	1817
1	3130	1818
1	3130	1819
1	3130	1820
1	3130	1821
1	3130	1822
1	3130	1823
1	3130	1824
1	3130	1825
1	3130	1826
1	3130	1827
1	3130	1828
1	3130	1829
1	3130	1830
1	3130	1831
1	3130	1832
1	3130	1833
1	3130	1834
1	3130	1835
1	3130	1836
1	3130	1837
1	3130	1838
1	3130	1839
1	3130	1880
1	3130	1881
1	3130	1882
1	3130	1883
1	3130	1884
1	3130	1885
1	3130	1886
1	3130	1887
1	3130	1888
1	3130	1889
1	3130	1890
1	3130	1891
1	3130	1892
1	3130	1893
1	3130	1894
1	3130	1895
1	3130	1896
1	3130	1897
1	3130	1898
1	3130	1899
1	3130	1860
1	3130	1861
1	3130	1862
1	3130	1863
1	3130	1864
1	3130	1865
1	3130	1866
1	3130	1867
1	3130	1868
1	3130	1869
1	3130	1870
1	3130	1871
1	3130	1872
1	3130	1873
1	3130	1874
1	3130	1875
1	3130	1876
1	3130	1877
1	3130	1878
1	3130	1879
1	3130	1840
1	3130	1841
1	3130	1842
1	3130	1843
1	3130	1844
1	3130	1845
1	3130	1846
1	3130	1847
1	3130	1848
1	3130	1849
1	3130	1850
1	3130	1851
1	3130	1852
1	3130	1853
1	3130	1854
1	3130	1855
1	3130	1856
1	3130	1857
1	3130	1858
1	3130	1859
1	3130	1900
1	3130	1901
1	3130	1902
1	3130	1903
1	3130	1904
1	3130	1905
1	3130	1906
1	3130	1907
1	3130	1908
1	3130	1909
1	3130	1910
1	3130	1911
1	3130	1912
1	3130	1913
1	3130	1914
1	3130	1915
1	3130	1916
1	3130	1917
1	3130	1918
1	3130	1919
1	3130	1920
1	3130	1921
1	3130	1922
1	3130	1923
1	3130	1924
1	3130	1925
1	3130	1926
1	3130	1927
1	3130	1928
1	3130	1929
1	3130	1930
1	3130	1931
1	3130	1932
1	3130	1933
1	3130	1934
1	3130	1935
1	3130	1936
1	3130	1937
1	3130	1938
1	3130	1939
1	3130	1940
1	3130	1941
1	3130	1942
1	3130	1943
1	3130	1944
1	3130	1945
1	3130	1946
1	3130	1947
1	3130	1948
1	3130	1949
1	3130	1950
1	3130	1951
1	3130	1952
1	3130	1953
1	3130	1954
1	3130	1955
1	3130	1956
1	3130	1957
1	3130	1958
1	3130	1959
1	3130	1960
1	3130	1961
1	3130	1962
1	3130	1963
1	3130	1964
1	3130	1965
1	3130	1966
1	3130	1967
1	3130	1968
1	3130	1969
1	3130	1970
1	3130	1971
1	3130	1972
1	3130	1973
1	3130	1974
1	3130	1975
1	3130	1976
1	3130	1977
1	3130	1978
1	3130	1979
1	3130	2000
1	3130	2001
1	3130	2002
1	3130	2003
1	3130	2004
1	3130	2005
1	3130	2006
1	3130	2007
1	3130	2008
1	3130	2009
1	3130	2010
1	3130	2011
1	3130	2012
1	3130	2013
1	3130	2014
1	3130	2015
1	3130	2016
1	3130	2017
1	3130	2018
1	3130	2019
1	3130	1980
1	3130	1981
1	3130	1982
1	3130	1983
1	3130	1984
1	3130	1985
1	3130	1986
1	3130	1987
1	3130	1988
1	3130	1989
1	3130	1990
1	3130	1991
1	3130	1992
1	3130	1993
1	3130	1994
1	3130	1995
1	3130	1996
1	3130	1997
1	3130	1998
1	3130	1999
1	3130	2020
1	3130	2021
1	3130	2022
1	3130	2023
1	3130	2024
1	3130	2025
1	3130	2026
1	3130	2027
1	3130	2028
1	3130	2029
1	3130	2030
1	3130	2031
1	3130	2032
1	3130	2033
1	3130	2034
1	3130	2035
1	3130	2036
1	3130	2037
1	3130	2038
1	3130	2039
1	3130	2060
1	3130	2061
1	3130	2062
1	3130	2063
1	3130	2064
1	3130	2065
1	3130	2066
1	3130	2067
1	3130	2068
1	3130	2069
1	3130	2070
1	3130	2071
1	3130	2072
1	3130	2073
1	3130	2074
1	3130	2075
1	3130	2076
1	3130	2077
1	3130	2078
1	3130	2079
1	3130	2040
1	3130	2041
1	3130	2042
1	3130	2043
1	3130	2044
1	3130	2045
1	3130	2046
1	3130	2047
1	3130	2048
1	3130	2049
1	3130	2050
1	3130	2051
1	3130	2052
1	3130	2053
1	3130	2054
1	3130	2055
1	3130	2056
1	3130	2057
1	3130	2058
1	3130	2059
1	3130	2080
1	3130	2081
1	3130	2082
1	3130	2083
1	3130	2084
1	3130	2085
1	3130	2086
1	3130	2087
1	3130	2088
1	3130	2089
1	3130	2090
1	3130	2091
1	3130	2092
1	3130	2093
1	3130	2094
1	3130	2095
1	3130	2096
1	3130	2097
1	3130	2098
1	3130	2099
1	3130	2100
1	3130	2101
1	3130	2102
1	3130	2103
1	3130	2104
1	3130	2105
1	3130	2106
1	3130	2107
1	3130	2108
1	3130	2109
1	3130	2110
1	3130	2111
1	3130	2112
1	3130	2113
1	3130	2114
1	3130	2115
1	3130	2116
1	3130	2117
1	3130	2118
1	3130	2119
1	3130	2140
1	3130	2141
1	3130	2142
1	3130	2143
1	3130	2144
1	3130	2145
1	3130	2146
1	3130	2147
1	3130	2148
1	3130	2149
1	3130	2150
1	3130	2151
1	3130	2152
1	3130	2153
1	3130	2154
1	3130	2155
1	3130	2156
1	3130	2157
1	3130	2158
1	3130	2159
1	3130	2120
1	3130	2121
1	3130	2122
1	3130	2123
1	3130	2124
1	3130	2125
1	3130	2126
1	3130	2127
1	3130	2128
1	3130	2129
1	3130	2130
1	3130	2131
1	3130	2132
1	3130	2133
1	3130	2134
1	3130	2135
1	3130	2136
1	3130	2137
1	3130	2138
1	3130	2139
1	3130	2160
1	3130	2161
1	3130	2162
1	3130	2163
1	3130	2164
1	3130	2165
1	3130	2166
1	3130	2167
1	3130	2168
1	3130	2169
1	3130	2170
1	3130	2171
1	3130	2172
1	3130	2173
1	3130	2174
1	3130	2175
1	3130	2176
1	3130	2177
1	3130	2178
1	3130	2179
1	3130	2180
1	3130	2181
1	3130	2182
1	3130	2183
1	3130	2184
1	3130	2185
1	3130	2186
1	3130	2187
1	3130	2188
1	3130	2189
1	3130	2190
1	3130	2191
1	3130	2192
1	3130	2193
1	3130	2194
1	3130	2195
1	3130	2196
1	3130	2197
1	3130	2198
1	3130	2199
1	3130	2200
1	3130	2201
1	3130	2202
1	3130	2203
1	3130	2204
1	3130	2205
1	3130	2206
1	3130	2207
1	3130	2208
1	3130	2209
1	3130	2210
1	3130	2211
1	3130	2212
1	3130	2213
1	3130	2214
1	3130	2215
1	3130	2216
1	3130	2217
1	3130	2218
1	3130	2219
1	3130	2220
1	3130	2221
1	3130	2222
1	3130	2223
1	3130	2224
1	3130	2225
1	3130	2226
1	3130	2227
1	3130	2228
1	3130	2229
1	3130	2230
1	3130	2231
1	3130	2232
1	3130	2233
1	3130	2234
1	3130	2235
1	3130	2236
1	3130	2237
1	3130	2238
1	3130	2239
1	3130	2240
1	3130	2241
1	3130	2242
1	3130	2243
1	3130	2244
1	3130	2245
1	3130	2246
1	3130	2247
1	3130	2248
1	3130	2249
1	3130	2250
1	3130	2251
1	3130	2252
1	3130	2253
1	3130	2254
1	3130	2255
1	3130	2256
1	3130	2257
1	3130	2258
1	3130	2259
1	3130	2260
1	3130	2261
1	3130	2262
1	3130	2263
1	3130	2264
1	3130	2265
1	3130	2266
1	3130	2267
1	3130	2268
1	3130	2269
1	3130	2270
1	3130	2271
1	3130	2272
1	3130	2273
1	3130	2274
1	3130	2275
1	3130	2276
1	3130	2277
1	3130	2278
1	3130	2279
1	3130	2280
1	3130	2281
1	3130	2282
1	3130	2283
1	3130	2284
1	3130	2285
1	3130	2286
1	3130	2287
1	3130	2288
1	3130	2289
1	3130	2290
1	3130	2291
1	3130	2292
1	3130	2293
1	3130	2294
1	3130	2295
1	3130	2296
1	3130	2297
1	3130	2298
1	3130	2299
1	3130	2300
1	3130	2301
1	3130	2302
1	3130	2303
1	3130	2304
1	3130	2305
1	3130	2306
1	3130	2307
1	3130	2308
1	3130	2309
1	3130	2310
1	3130	2311
1	3130	2312
1	3130	2313
1	3130	2314
1	3130	2315
1	3130	2316
1	3130	2317
1	3130	2318
1	3130	2319
1	3130	2320
1	3130	2321
1	3130	2322
1	3130	2323
1	3130	2324
1	3130	2325
1	3130	2326
1	3130	2327
1	3130	2328
1	3130	2329
1	3130	2330
1	3130	2331
1	3130	2332
1	3130	2333
1	3130	2334
1	3130	2335
1	3130	2336
1	3130	2337
1	3130	2338
1	3130	2339
1	3130	2340
1	3130	2341
1	3130	2342
1	3130	2343
1	3130	2344
1	3130	2345
1	3130	2346
1	3130	2347
1	3130	2348
1	3130	2349
1	3130	2350
1	3130	2351
1	3130	2352
1	3130	2353
1	3130	2354
1	3130	2355
1	3130	2356
1	3130	2357
1	3130	2358
1	3130	2359
1	3130	2360
1	3130	2361
1	3130	2362
1	3130	2363
1	3130	2364
1	3130	2365
1	3130	2366
1	3130	2367
1	3130	2368
1	3130	2369
1	3130	2370
1	3130	2371
1	3130	2372
1	3130	2373
1	3130	2374
1	3130	2375
1	3130	2376
1	3130	2377
1	3130	2378
1	3130	2379
1	3130	2380
1	3130	2381
1	3130	2382
1	3130	2383
1	3130	2384
1	3130	2385
1	3130	2386
1	3130	2387
1	3076	2388
1	3030	2389
1	3001	2390
1	2993	2391
1	2994	2392
1	3012	2393
1	3042	2394
1	3074	2395
1	3104	2396
1	3129	2397
1	3130	2398
1	3130	2399
1	3130	2400
1	3130	2401
1	3101	2402
1	3064	2403
1	3032	2404
1	3009	2405
1	2990	2406
1	2976	2407
1	2973	2408
1	2981	2409
1	2992	2410
1	2999	2411
1	3012	2412
1	3032	2413
1	3055	2414
1	3078	2415
1	3104	2416
1	3124	2417
1	3130	2418
1	3127	2419
1	3112	2420
1	3089	2421
1	3059	2422
1	3023	2423
1	2990	2424
1	2965	2425
1	2945	2426
1	2924	2427
1	2904	2428
1	2891	2429
1	2888	2430
1	2895	2431
1	2907	2432
1	2929	2433
1	2949	2434
1	2980	2435
1	3014	2436
1	3037	2437
1	3071	2438
1	3100	2439
1	3119	2440
1	3111	2441
1	3094	2442
1	3057	2443
1	3031	2444
1	3012	2445
1	2991	2446
1	2973	2447
1	2946	2448
1	2916	2449
1	2892	2450
1	2882	2451
1	2878	2452
1	2881	2453
1	2895	2454
1	2914	2455
1	2933	2456
1	2946	2457
1	2962	2458
1	2968	2459
1	2962	2460
1	2960	2461
1	2946	2462
1	2928	2463
1	2907	2464
1	2890	2465
1	2870	2466
1	2844	2467
1	2818	2468
1	2801	2469
1	2779	2470
1	2764	2471
1	2757	2472
1	2762	2473
1	2778	2474
1	2811	2475
1	2853	2476
1	2901	2477
1	2947	2478
1	2980	2479
1	2996	2480
1	2995	2481
1	2983	2482
1	2967	2483
1	2942	2484
1	2920	2485
1	2898	2486
1	2896	2487
1	2885	2488
1	2873	2489
1	2866	2490
1	2855	2491
1	2853	2492
1	2862	2493
1	2885	2494
1	2933	2495
1	2954	2496
1	2975	2497
1	2986	2498
1	2973	2499
1	2957	2500
1	2935	2501
1	2914	2502
1	2868	2503
1	2844	2504
1	2832	2505
1	2820	2506
1	2813	2507
1	2811	2508
1	2822	2509
1	2841	2510
1	2874	2511
1	2913	2512
1	2949	2513
1	2985	2514
1	3019	2515
1	3039	2516
1	3048	2517
1	3046	2518
1	3033	2519
1	3005	2520
1	2961	2521
1	2907	2522
1	2863	2523
1	2818	2524
1	2782	2525
1	2755	2526
1	2735	2527
1	2720	2528
1	2716	2529
1	2722	2530
1	2739	2531
1	2758	2532
1	2774	2533
1	2792	2534
1	2828	2535
1	2860	2536
1	2881	2537
1	2887	2538
1	2889	2539
1	2879	2540
1	2859	2541
1	2823	2542
1	2785	2543
1	2744	2544
1	2706	2545
1	2668	2546
1	2643	2547
1	2611	2548
1	2602	2549
1	2603	2550
1	2610	2551
1	2623	2552
1	2640	2553
1	2658	2554
1	2683	2555
1	2709	2556
1	2741	2557
1	2764	2558
1	2772	2559
1	2764	2560
1	2736	2561
1	2691	2562
1	2653	2563
1	2619	2564
1	2587	2565
1	2577	2566
1	2580	2567
1	2593	2568
1	2616	2569
1	2642	2570
1	2668	2571
1	2694	2572
1	2713	2573
1	2741	2574
1	2764	2575
1	2779	2576
1	2777	2577
1	2767	2578
1	2742	2579
1	2706	2580
1	2672	2581
1	2633	2582
1	2597	2583
1	2568	2584
1	2540	2585
1	2520	2586
1	2514	2587
1	2509	2588
1	2515	2589
1	2526	2590
1	2542	2591
1	2558	2592
1	2575	2593
1	2587	2594
1	2602	2595
1	2622	2596
1	2635	2597
1	2654	2598
1	2664	2599
1	2673	2600
1	2668	2601
1	2648	2602
1	2623	2603
1	2607	2604
1	2604	2605
1	2608	2606
1	2617	2607
1	2631	2608
1	2640	2609
1	2644	2610
1	2648	2611
1	2652	2612
1	2653	2613
1	2650	2614
1	2644	2615
1	2642	2616
1	2637	2617
1	2624	2618
1	2616	2619
1	3083	2640
1	3011	2641
1	2933	2642
1	2836	2643
1	2740	2644
1	2637	2645
1	2535	2646
1	2448	2647
1	2359	2648
1	2288	2649
1	2239	2650
1	2204	2651
1	2181	2652
1	2183	2653
1	2192	2654
1	2210	2655
1	2230	2656
1	2239	2657
1	2246	2658
1	2243	2659
1	2617	2620
1	2617	2621
1	2600	2622
1	2585	2623
1	2580	2624
1	2589	2625
1	2622	2626
1	2658	2627
1	2706	2628
1	2764	2629
1	2823	2630
1	2880	2631
1	2921	2632
1	2965	2633
1	3011	2634
1	3061	2635
1	3106	2636
1	3129	2637
1	3128	2638
1	3119	2639
1	2233	2660
1	2206	2661
1	2179	2662
1	2145	2663
1	2132	2664
1	2132	2665
1	2143	2666
1	2161	2667
1	2197	2668
1	2231	2669
1	2262	2670
1	2294	2671
1	2336	2672
1	2393	2673
1	2458	2674
1	2512	2675
1	2535	2676
1	2548	2677
1	2543	2678
1	2528	2679
1	2503	2680
1	2466	2681
1	2426	2682
1	2393	2683
1	2363	2684
1	2338	2685
1	2324	2686
1	2314	2687
1	2312	2688
1	2305	2689
1	2302	2690
1	2310	2691
1	2336	2692
1	2359	2693
1	2401	2694
1	2453	2695
1	2494	2696
1	2516	2697
1	2537	2698
1	2537	2699
1	2521	2700
1	2487	2701
1	2431	2702
1	2386	2703
1	2350	2704
1	2317	2705
1	2293	2706
1	2281	2707
1	2272	2708
1	2274	2709
1	2284	2710
1	2302	2711
1	2323	2712
1	2356	2713
1	2390	2714
1	2429	2715
1	2463	2716
1	2485	2717
1	2496	2718
1	2495	2719
1	2359	2740
1	2326	2741
1	2288	2742
1	2262	2743
1	2248	2744
1	2249	2745
1	2268	2746
1	2284	2747
1	2292	2748
1	2302	2749
1	2314	2750
1	2327	2751
1	2341	2752
1	2354	2753
1	2384	2754
1	2423	2755
1	2458	2756
1	2480	2757
1	2496	2758
1	2492	2759
1	2484	2720
1	2457	2721
1	2419	2722
1	2375	2723
1	2346	2724
1	2338	2725
1	2341	2726
1	2351	2727
1	2364	2728
1	2367	2729
1	2376	2730
1	2393	2731
1	2395	2732
1	2411	2733
1	2421	2734
1	2430	2735
1	2428	2736
1	2419	2737
1	2407	2738
1	2387	2739
1	2471	2760
1	2430	2761
1	2370	2762
1	2314	2763
1	2258	2764
1	2208	2765
1	2172	2766
1	2156	2767
1	2138	2768
1	2140	2769
1	2152	2770
1	2163	2771
1	2178	2772
1	2209	2773
1	2251	2774
1	2292	2775
1	2339	2776
1	2369	2777
1	2384	2778
1	2381	2779
1	2369	2780
1	2355	2781
1	2335	2782
1	2310	2783
1	2296	2784
1	2288	2785
1	2287	2786
1	2287	2787
1	2294	2788
1	2297	2789
1	2293	2790
1	2287	2791
1	2276	2792
1	2284	2793
1	2306	2794
1	2339	2795
1	2371	2796
1	2390	2797
1	2376	2798
1	2346	2799
1	2320	2800
1	2291	2801
1	2264	2802
1	2255	2803
1	2240	2804
1	2234	2805
1	2228	2806
1	2236	2807
1	2243	2808
1	2251	2809
1	2261	2810
1	2273	2811
1	2293	2812
1	2313	2813
1	2341	2814
1	2367	2815
1	2379	2816
1	2378	2817
1	2369	2818
1	2350	2819
1	2327	2820
1	2284	2821
1	2236	2822
1	2185	2823
1	2152	2824
1	2122	2825
1	2102	2826
1	2088	2827
1	2078	2828
1	2080	2829
1	2097	2830
1	2123	2831
1	2142	2832
1	2184	2833
1	2243	2834
1	2307	2835
1	2361	2836
1	2404	2837
1	2439	2838
1	2451	2839
1	2447	2840
1	2430	2841
1	2393	2842
1	2341	2843
1	2296	2844
1	2261	2845
1	2232	2846
1	2210	2847
1	2210	2848
1	2210	2849
1	2222	2850
1	2247	2851
1	2267	2852
1	2291	2853
1	2320	2854
1	2352	2855
1	2376	2856
1	2393	2857
1	2389	2858
1	2379	2859
1	2364	2860
1	2336	2861
1	2296	2862
1	2262	2863
1	2219	2864
1	2189	2865
1	2175	2866
1	2174	2867
1	2176	2868
1	2184	2869
1	2206	2870
1	2222	2871
1	2245	2872
1	2263	2873
1	2289	2874
1	2319	2875
1	2344	2876
1	2363	2877
1	2382	2878
1	2374	2879
1	2353	2880
1	2315	2881
1	2273	2882
1	2219	2883
1	2168	2884
1	2124	2885
1	2092	2886
1	2082	2887
1	2087	2888
1	2097	2889
1	2104	2890
1	2112	2891
1	2130	2892
1	2163	2893
1	2204	2894
1	2256	2895
1	2305	2896
1	2350	2897
1	2387	2898
1	2415	2899
1	2419	2900
1	2402	2901
1	2367	2902
1	2314	2903
1	2266	2904
1	2210	2905
1	2164	2906
1	2124	2907
1	2105	2908
1	2091	2909
1	2099	2910
1	2118	2911
1	2152	2912
1	2197	2913
1	2256	2914
1	2304	2915
1	2341	2916
1	2364	2917
1	2356	2918
1	2332	2919
1	2301	2920
1	2269	2921
1	2242	2922
1	2222	2923
1	2210	2924
1	2205	2925
1	2215	2926
1	2236	2927
1	2239	2928
1	2236	2929
1	2212	2930
1	2194	2931
1	2175	2932
1	2170	2933
1	2179	2934
1	2192	2935
1	2196	2936
1	2194	2937
1	2189	2938
1	2179	2939
1	2158	2940
1	2143	2941
1	2116	2942
1	2088	2943
1	2066	2944
1	2048	2945
1	2035	2946
1	2031	2947
1	2029	2948
1	2030	2949
1	2032	2950
1	2045	2951
1	2066	2952
1	2102	2953
1	2129	2954
1	2152	2955
1	2166	2956
1	2176	2957
1	2170	2958
1	2144	2959
1	2110	2960
1	2070	2961
1	2022	2962
1	1962	2963
1	1913	2964
1	1877	2965
1	1863	2966
1	1864	2967
1	1880	2968
1	1893	2969
1	1904	2970
1	1922	2971
1	1948	2972
1	1977	2973
1	2015	2974
1	2056	2975
1	2093	2976
1	2115	2977
1	2104	2978
1	2084	2979
1	1978	3000
1	1969	3001
1	1950	3002
1	1934	3003
1	1916	3004
1	1894	3005
1	1868	3006
1	1852	3007
1	1842	3008
1	1843	3009
1	1846	3010
1	1848	3011
1	1860	3012
1	1886	3013
1	1909	3014
1	1938	3015
1	1961	3016
1	1970	3017
1	1970	3018
1	1957	3019
1	2052	2980
1	2015	2981
1	1974	2982
1	1940	2983
1	1908	2984
1	1890	2985
1	1886	2986
1	1894	2987
1	1895	2988
1	1898	2989
1	1904	2990
1	1906	2991
1	1904	2992
1	1905	2993
1	1910	2994
1	1924	2995
1	1948	2996
1	1966	2997
1	1985	2998
1	1985	2999
1	1913	3040
1	1893	3041
1	1868	3042
1	1852	3043
1	1846	3044
1	1844	3045
1	1841	3046
1	1821	3047
1	1808	3048
1	1800	3049
1	1802	3050
1	1817	3051
1	1836	3052
1	1864	3053
1	1896	3054
1	1926	3055
1	1948	3056
1	1949	3057
1	1949	3058
1	1944	3059
1	1931	3020
1	1897	3021
1	1860	3022
1	1819	3023
1	1790	3024
1	1779	3025
1	1788	3026
1	1813	3027
1	1842	3028
1	1852	3029
1	1852	3030
1	1867	3031
1	1872	3032
1	1895	3033
1	1919	3034
1	1944	3035
1	1957	3036
1	1958	3037
1	1950	3038
1	1933	3039
1	1932	3060
1	1909	3061
1	1872	3062
1	1841	3063
1	1802	3064
1	1776	3065
1	1764	3066
1	1760	3067
1	1750	3068
1	1742	3069
1	1741	3070
1	1743	3071
1	1749	3072
1	1778	3073
1	1816	3074
1	1845	3075
1	1872	3076
1	1896	3077
1	1913	3078
1	1909	3079
1	1861	3100
1	1826	3101
1	1791	3102
1	1772	3103
1	1763	3104
1	1762	3105
1	1764	3106
1	1770	3107
1	1775	3108
1	1778	3109
1	1780	3110
1	1791	3111
1	1817	3112
1	1832	3113
1	1856	3114
1	1882	3115
1	1902	3116
1	1913	3117
1	1921	3118
1	1913	3119
1	1894	3080
1	1870	3081
1	1846	3082
1	1817	3083
1	1785	3084
1	1754	3085
1	1725	3086
1	1710	3087
1	1713	3088
1	1730	3089
1	1754	3090
1	1789	3091
1	1819	3092
1	1854	3093
1	1885	3094
1	1911	3095
1	1931	3096
1	1935	3097
1	1921	3098
1	1893	3099
1	1899	3120
1	1878	3121
1	1857	3122
1	1832	3123
1	1800	3124
1	1769	3125
1	1750	3126
1	1731	3127
1	1715	3128
1	1715	3129
1	1734	3130
1	1752	3131
1	1764	3132
1	1790	3133
1	1831	3134
1	1870	3135
1	1894	3136
1	1903	3137
1	1904	3138
1	1886	3139
1	1843	3160
1	1824	3161
1	1791	3162
1	1776	3163
1	1760	3164
1	1742	3165
1	1731	3166
1	1728	3167
1	1733	3168
1	1739	3169
1	1751	3170
1	1764	3171
1	1783	3172
1	1814	3173
1	1845	3174
1	1872	3175
1	1885	3176
1	1885	3177
1	1877	3178
1	1859	3179
1	1862	3140
1	1831	3141
1	1791	3142
1	1755	3143
1	1731	3144
1	1712	3145
1	1693	3146
1	1683	3147
1	1679	3148
1	1677	3149
1	1670	3150
1	1670	3151
1	1675	3152
1	1690	3153
1	1719	3154
1	1760	3155
1	1792	3156
1	1823	3157
1	1838	3158
1	1845	3159
1	1834	3180
1	1791	3181
1	1747	3182
1	1710	3183
1	1685	3184
1	1668	3185
1	1662	3186
1	1677	3187
1	1688	3188
1	1701	3189
1	1713	3190
1	1718	3191
1	1710	3192
1	1708	3193
1	1715	3194
1	1734	3195
1	1756	3196
1	1778	3197
1	1799	3198
1	1812	3199
1	1801	3200
1	1778	3201
1	1739	3202
1	1699	3203
1	1676	3204
1	1658	3205
1	1640	3206
1	1631	3207
1	1639	3208
1	1660	3209
1	1686	3210
1	1712	3211
1	1728	3212
1	1744	3213
1	1771	3214
1	1816	3215
1	1854	3216
1	1882	3217
1	1894	3218
1	1895	3219
1	1883	3220
1	1850	3221
1	1800	3222
1	1769	3223
1	1750	3224
1	1738	3225
1	1736	3226
1	1727	3227
1	1713	3228
1	1712	3229
1	1714	3230
1	1712	3231
1	1712	3232
1	1713	3233
1	1724	3234
1	1733	3235
1	1735	3236
1	1723	3237
1	1710	3238
1	1686	3239
1	1677	3240
1	1682	3241
1	1699	3242
1	1715	3243
1	1726	3244
1	1726	3245
1	1715	3246
1	1700	3247
1	1683	3248
1	1673	3249
1	1669	3250
1	1674	3251
1	1688	3252
1	1718	3253
1	1746	3254
1	1764	3255
1	1779	3256
1	1787	3257
1	1788	3258
1	1783	3259
1	1771	3260
1	1750	3261
1	1716	3262
1	1685	3263
1	1661	3264
1	1644	3265
1	1633	3266
1	1625	3267
1	1632	3268
1	1638	3269
1	1651	3270
1	1660	3271
1	1668	3272
1	1674	3273
1	1690	3274
1	1718	3275
1	1757	3276
1	1791	3277
1	1814	3278
1	1824	3279
1	1829	3280
1	1813	3281
1	1775	3282
1	1741	3283
1	1708	3284
1	1670	3285
1	1646	3286
1	1638	3287
1	1649	3288
1	1668	3289
1	1686	3290
1	1701	3291
1	1718	3292
1	1738	3293
1	1769	3294
1	1801	3295
1	1832	3296
1	1845	3297
1	1854	3298
1	1839	3299
1	1814	3300
1	1773	3301
1	1731	3302
1	1695	3303
1	1662	3304
1	1634	3305
1	1607	3306
1	1592	3307
1	1574	3308
1	1568	3309
1	1571	3310
1	1584	3311
1	1610	3312
1	1651	3313
1	1695	3314
1	1742	3315
1	1786	3316
1	1816	3317
1	1835	3318
1	1830	3319
1	1809	3320
1	1773	3321
1	1738	3322
1	1705	3323
1	1680	3324
1	1660	3325
1	1649	3326
1	1652	3327
1	1661	3328
1	1665	3329
1	1670	3330
1	1685	3331
1	1695	3332
1	1724	3333
1	1757	3334
1	1783	3335
1	1800	3336
1	1814	3337
1	1817	3338
1	1813	3339
1	1793	3340
1	1767	3341
1	1738	3342
1	1712	3343
1	1687	3344
1	1668	3345
1	1658	3346
1	1647	3347
1	1635	3348
1	1634	3349
1	1645	3350
1	1672	3351
1	1701	3352
1	1734	3353
1	1778	3354
1	1827	3355
1	1868	3356
1	1898	3357
1	1931	3358
1	1940	3359
1	1918	3360
1	1868	3361
1	1801	3362
1	1744	3363
1	1698	3364
1	1674	3365
1	1665	3366
1	1673	3367
1	1684	3368
1	1705	3369
1	1733	3370
1	1753	3371
1	1770	3372
1	1791	3373
1	1816	3374
1	1841	3375
1	1860	3376
1	1872	3377
1	1871	3378
1	1862	3379
1	1847	3380
1	1818	3381
1	1788	3382
1	1752	3383
1	1736	3384
1	1723	3385
1	1714	3386
1	1704	3387
1	1703	3388
1	1698	3389
1	1693	3390
1	1695	3391
1	1704	3392
1	1726	3393
1	1762	3394
1	1810	3395
1	1854	3396
1	1886	3397
1	1899	3398
1	1898	3399
1	1883	3400
1	1847	3401
1	1791	3402
1	1738	3403
1	1680	3404
1	1631	3405
1	1595	3406
1	1568	3407
1	1548	3408
1	1539	3409
1	1537	3410
1	1541	3411
1	1546	3412
1	1557	3413
1	1593	3414
1	1638	3415
1	1686	3416
1	1731	3417
1	1774	3418
1	1796	3419
1	1712	3440
1	1670	3441
1	1629	3442
1	1589	3443
1	1561	3444
1	1548	3445
1	1544	3446
1	1548	3447
1	1567	3448
1	1584	3449
1	1610	3450
1	1634	3451
1	1660	3452
1	1689	3453
1	1723	3454
1	1744	3455
1	1751	3456
1	1746	3457
1	1725	3458
1	1706	3459
1	1801	3420
1	1787	3421
1	1757	3422
1	1738	3423
1	1715	3424
1	1692	3425
1	1665	3426
1	1638	3427
1	1618	3428
1	1607	3429
1	1598	3430
1	1583	3431
1	1584	3432
1	1607	3433
1	1647	3434
1	1683	3435
1	1717	3436
1	1738	3437
1	1747	3438
1	1737	3439
1	1683	3460
1	1657	3461
1	1623	3462
1	1594	3463
1	1566	3464
1	1545	3465
1	1539	3466
1	1548	3467
1	1576	3468
1	1607	3469
1	1636	3470
1	1664	3471
1	1686	3472
1	1695	3473
1	1716	3474
1	1739	3475
1	1764	3476
1	1777	3477
1	1791	3478
1	1788	3479
1	1772	3480
1	1754	3481
1	1738	3482
1	1728	3483
1	1729	3484
1	1737	3485
1	1747	3486
1	1769	3487
1	1808	3488
1	1857	3489
1	1922	3490
1	1998	3491
1	2070	3492
1	2152	3493
1	2219	3494
1	2289	3495
1	2346	3496
1	2386	3497
1	2404	3498
1	2395	3499
1	2368	3500
1	2317	3501
1	2256	3502
1	2183	3503
1	2131	3504
1	2075	3505
1	2004	3506
1	1916	3507
1	1825	3508
1	1731	3509
1	1645	3510
1	1564	3511
1	1488	3512
1	1435	3513
1	1400	3514
1	1381	3515
1	1372	3516
1	1364	3517
1	1348	3518
1	1335	3519
1	1319	3520
1	1294	3521
1	1276	3522
1	1260	3523
1	1241	3524
1	1235	3525
1	1237	3526
1	1243	3527
1	1254	3528
1	1280	3529
1	1318	3530
1	1364	3531
1	1426	3532
1	1500	3533
1	1573	3534
1	1647	3535
1	1710	3536
1	1746	3537
1	1755	3538
1	1747	3539
1	1728	3540
1	1701	3541
1	1664	3542
1	1635	3543
1	1616	3544
1	1607	3545
1	1605	3546
1	1608	3547
1	1613	3548
1	1629	3549
1	1650	3550
1	1665	3551
1	1682	3552
1	1701	3553
1	1729	3554
1	1764	3555
1	1788	3556
1	1791	3557
1	1782	3558
1	1767	3559
1	1749	3560
1	1719	3561
1	1690	3562
1	1670	3563
1	1661	3564
1	1654	3565
1	1641	3566
1	1625	3567
1	1621	3568
1	1618	3569
1	1621	3570
1	1634	3571
1	1652	3572
1	1683	3573
1	1723	3574
1	1773	3575
1	1821	3576
1	1854	3577
1	1859	3578
1	1857	3579
1	1843	3580
1	1797	3581
1	1742	3582
1	1689	3583
1	1638	3584
1	1607	3585
1	1587	3586
1	1581	3587
1	1581	3588
1	1586	3589
1	1602	3590
1	1625	3591
1	1657	3592
1	1686	3593
1	1731	3594
1	1772	3595
1	1803	3596
1	1823	3597
1	1828	3598
1	1816	3599
1	1787	3600
1	1751	3601
1	1711	3602
1	1680	3603
1	1660	3604
1	1652	3605
1	1651	3606
1	1660	3607
1	1674	3608
1	1686	3609
1	1682	3610
1	1674	3611
1	1672	3612
1	1686	3613
1	1699	3614
1	1718	3615
1	1738	3616
1	1742	3617
1	1741	3618
1	1726	3619
1	1704	3620
1	1679	3621
1	1660	3622
1	1643	3623
1	1634	3624
1	1632	3625
1	1628	3626
1	1631	3627
1	1642	3628
1	1644	3629
1	1645	3630
1	1658	3631
1	1663	3632
1	1682	3633
1	1710	3634
1	1738	3635
1	1775	3636
1	1814	3637
1	1837	3638
1	1849	3639
1	1831	3660
1	1796	3661
1	1766	3662
1	1738	3663
1	1703	3664
1	1681	3665
1	1668	3666
1	1661	3667
1	1657	3668
1	1660	3669
1	1660	3670
1	1669	3671
1	1685	3672
1	1710	3673
1	1729	3674
1	1751	3675
1	1773	3676
1	1796	3677
1	1825	3678
1	1843	3679
1	1849	3640
1	1839	3641
1	1820	3642
1	1801	3643
1	1779	3644
1	1754	3645
1	1738	3646
1	1716	3647
1	1705	3648
1	1702	3649
1	1708	3650
1	1716	3651
1	1738	3652
1	1762	3653
1	1791	3654
1	1814	3655
1	1822	3656
1	1832	3657
1	1846	3658
1	1847	3659
1	1843	3680
1	1826	3681
1	1796	3682
1	1772	3683
1	1757	3684
1	1744	3685
1	1729	3686
1	1716	3687
1	1713	3688
1	1708	3689
1	1699	3690
1	1698	3691
1	1708	3692
1	1729	3693
1	1755	3694
1	1790	3695
1	1823	3696
1	1854	3697
1	1867	3698
1	1869	3699
1	1860	3700
1	1841	3701
1	1814	3702
1	1791	3703
1	1764	3704
1	1747	3705
1	1738	3706
1	1733	3707
1	1736	3708
1	1742	3709
1	1753	3710
1	1764	3711
1	1784	3712
1	1809	3713
1	1852	3714
1	1897	3715
1	1927	3716
1	1944	3717
1	1948	3718
1	1940	3719
1	1913	3720
1	1868	3721
1	1817	3722
1	1775	3723
1	1751	3724
1	1728	3725
1	1716	3726
1	1723	3727
1	1737	3728
1	1764	3729
1	1792	3730
1	1817	3731
1	1841	3732
1	1867	3733
1	1895	3734
1	1932	3735
1	1976	3736
1	2013	3737
1	2035	3738
1	2043	3739
1	2029	3740
1	2001	3741
1	1963	3742
1	1920	3743
1	1884	3744
1	1852	3745
1	1817	3746
1	1790	3747
1	1773	3748
1	1764	3749
1	1760	3750
1	1762	3751
1	1767	3752
1	1779	3753
1	1794	3754
1	1817	3755
1	1832	3756
1	1849	3757
1	1854	3758
1	1861	3759
1	1868	3760
1	1856	3761
1	1835	3762
1	1821	3763
1	1814	3764
1	1812	3765
1	1814	3766
1	1821	3767
1	1819	3768
1	1823	3769
1	1832	3770
1	1847	3771
1	1877	3772
1	1913	3773
1	1959	3774
1	1999	3775
1	2030	3776
1	2055	3777
1	2071	3778
1	2068	3779
1	2050	3780
1	2016	3781
1	1971	3782
1	1924	3783
1	1882	3784
1	1849	3785
1	1817	3786
1	1796	3787
1	1792	3788
1	1795	3789
1	1799	3790
1	1809	3791
1	1829	3792
1	1869	3793
1	1903	3794
1	1931	3795
1	1945	3796
1	1949	3797
1	1943	3798
1	1919	3799
1	1895	3800
1	1862	3801
1	1829	3802
1	1791	3803
1	1775	3804
1	1764	3805
1	1749	3806
1	1738	3807
1	1737	3808
1	1726	3809
1	1719	3810
1	1724	3811
1	1737	3812
1	1755	3813
1	1785	3814
1	1818	3815
1	1846	3816
1	1869	3817
1	1869	3818
1	1860	3819
1	1844	3820
1	1823	3821
1	1788	3822
1	1757	3823
1	1712	3824
1	1668	3825
1	1628	3826
1	1594	3827
1	1567	3828
1	1558	3829
1	1572	3830
1	1586	3831
1	1617	3832
1	1657	3833
1	1700	3834
1	1743	3835
1	1777	3836
1	1795	3837
1	1811	3838
1	1816	3839
1	1681	3860
1	1641	3861
1	1613	3862
1	1593	3863
1	1589	3864
1	1597	3865
1	1619	3866
1	1647	3867
1	1686	3868
1	1712	3869
1	1733	3870
1	1750	3871
1	1778	3872
1	1803	3873
1	1825	3874
1	1841	3875
1	1854	3876
1	1865	3877
1	1863	3878
1	1853	3879
1	1819	3880
1	1779	3881
1	1739	3882
1	1704	3883
1	1662	3884
1	1626	3885
1	1599	3886
1	1581	3887
1	1581	3888
1	1582	3889
1	1589	3890
1	1600	3891
1	1620	3892
1	1643	3893
1	1674	3894
1	1703	3895
1	1721	3896
1	1733	3897
1	1747	3898
1	1757	3899
1	1811	3840
1	1809	3841
1	1791	3842
1	1772	3843
1	1760	3844
1	1743	3845
1	1728	3846
1	1718	3847
1	1712	3848
1	1724	3849
1	1744	3850
1	1762	3851
1	1766	3852
1	1778	3853
1	1787	3854
1	1790	3855
1	1785	3856
1	1775	3857
1	1755	3858
1	1723	3859
1	1764	3900
1	1761	3901
1	1751	3902
1	1734	3903
1	1712	3904
1	1697	3905
1	1674	3906
1	1664	3907
1	1660	3908
1	1665	3909
1	1678	3910
1	1687	3911
1	1698	3912
1	1714	3913
1	1730	3914
1	1742	3915
1	1751	3916
1	1757	3917
1	1752	3918
1	1742	3919
1	1729	3920
1	1718	3921
1	1711	3922
1	1691	3923
1	1675	3924
1	1665	3925
1	1665	3926
1	1680	3927
1	1710	3928
1	1741	3929
1	1764	3930
1	1790	3931
1	1791	3932
1	1795	3933
1	1800	3934
1	1800	3935
1	1791	3936
1	1773	3937
1	1760	3938
1	1739	3939
1	1712	3940
1	1678	3941
1	1644	3942
1	1620	3943
1	1607	3944
1	1607	3945
1	1620	3946
1	1637	3947
1	1660	3948
1	1686	3949
1	1711	3950
1	1728	3951
1	1744	3952
1	1760	3953
1	1778	3954
1	1792	3955
1	1817	3956
1	1839	3957
1	1862	3958
1	1869	3959
1	1860	3960
1	1839	3961
1	1801	3962
1	1775	3963
1	1751	3964
1	1737	3965
1	1716	3966
1	1698	3967
1	1685	3968
1	1686	3969
1	1698	3970
1	1713	3971
1	1738	3972
1	1764	3973
1	1773	3974
1	1778	3975
1	1773	3976
1	1760	3977
1	1738	3978
1	1712	3979
1	1680	3980
1	1646	3981
1	1618	3982
1	1594	3983
1	1585	3984
1	1582	3985
1	1582	3986
1	1593	3987
1	1620	3988
1	1647	3989
1	1678	3990
1	1711	3991
1	1744	3992
1	1780	3993
1	1823	3994
1	1859	3995
1	1884	3996
1	1897	3997
1	1895	3998
1	1883	3999
1	1853	4000
1	1818	4001
1	1785	4002
1	1762	4003
1	1736	4004
1	1711	4005
1	1688	4006
1	1680	4006
1	1674	4008
1	1662	4009
1	1665	4010
1	1677	4011
1	1697	4012
1	1716	4013
1	1747	4014
1	1766	4014
1	1778	4016
1	1787	4017
1	1790	4018
1	1773	4019
1	1793	4040
1	1765	4041
1	1733	4042
1	1688	4043
1	1647	4044
1	1623	4045
1	1607	4046
1	1598	4046
1	1600	4048
1	1607	4049
1	1620	4050
1	1645	4051
1	1676	4052
1	1711	4053
1	1738	4054
1	1763	4054
1	1782	4056
1	1792	4057
1	1787	4058
1	1772	4059
1	1750	4060
1	1721	4061
1	1690	4062
1	1670	4062
1	1657	4064
1	1657	4065
1	1658	4066
1	1661	4067
1	1677	4068
1	1698	4069
1	1716	4070
1	1731	4070
1	1750	4072
1	1764	4073
1	1791	4074
1	1825	4075
1	1848	4076
1	1862	4077
1	1866	4078
1	1854	4078
1	1755	4020
1	1738	4021
1	1730	4022
1	1724	4022
1	1728	4024
1	1730	4025
1	1736	4026
1	1737	4027
1	1733	4028
1	1733	4029
1	1731	4030
1	1731	4030
1	1738	4032
1	1751	4033
1	1773	4034
1	1794	4035
1	1824	4036
1	1836	4037
1	1832	4038
1	1818	4038
1	1828	4080
1	1791	4081
1	1752	4082
1	1718	4083
1	1687	4084
1	1668	4085
1	1651	4086
1	1634	4086
1	1616	4088
1	1614	4089
1	1628	4090
1	1639	4091
1	1661	4092
1	1698	4093
1	1738	4094
1	1780	4094
1	1818	4096
1	1839	4097
1	1844	4098
1	1843	4099
1	1831	4100
1	1809	4101
1	1778	4102
1	1741	4103
1	1712	4104
1	1686	4105
1	1661	4106
1	1645	4107
1	1638	4108
1	1634	4109
1	1634	4110
1	1643	4111
1	1661	4112
1	1691	4113
1	1734	4114
1	1772	4115
1	1798	4116
1	1817	4117
1	1813	4118
1	1801	4119
1	1782	4120
1	1746	4121
1	1708	4122
1	1692	4123
1	1686	4124
1	1686	4125
1	1695	4126
1	1701	4127
1	1704	4128
1	1706	4129
1	1706	4130
1	1725	4131
1	1751	4132
1	1778	4133
1	1803	4134
1	1829	4135
1	1841	4136
1	1842	4137
1	1827	4138
1	1814	4139
1	1783	4140
1	1737	4141
1	1711	4142
1	1687	4143
1	1665	4144
1	1642	4145
1	1617	4146
1	1607	4147
1	1602	4148
1	1609	4149
1	1628	4150
1	1654	4151
1	1697	4152
1	1751	4153
1	1796	4154
1	1845	4155
1	1883	4156
1	1909	4157
1	1919	4158
1	1898	4159
1	1859	4160
1	1814	4161
1	1757	4162
1	1701	4163
1	1661	4164
1	1641	4165
1	1635	4166
1	1634	4167
1	1647	4168
1	1661	4169
1	1671	4170
1	1683	4171
1	1695	4172
1	1706	4173
1	1718	4174
1	1734	4175
1	1751	4176
1	1767	4177
1	1762	4178
1	1744	4179
1	1718	4180
1	1688	4181
1	1681	4182
1	1677	4183
1	1679	4184
1	1685	4185
1	1692	4186
1	1710	4187
1	1723	4188
1	1744	4189
1	1760	4190
1	1772	4191
1	1791	4192
1	1814	4193
1	1842	4194
1	1869	4195
1	1894	4196
1	1909	4197
1	1922	4198
1	1913	4199
1	1886	4200
1	1843	4201
1	1790	4202
1	1738	4203
1	1692	4204
1	1660	4205
1	1646	4206
1	1647	4207
1	1656	4208
1	1678	4209
1	1709	4210
1	1741	4211
1	1781	4212
1	1834	4213
1	1871	4214
1	1909	4215
1	1936	4216
1	1947	4217
1	1937	4218
1	1920	4219
1	1891	4220
1	1847	4221
1	1809	4222
1	1772	4223
1	1754	4224
1	1756	4225
1	1765	4226
1	1782	4227
1	1814	4228
1	1830	4229
1	1834	4230
1	1851	4231
1	1863	4232
1	1886	4233
1	1909	4234
1	1920	4235
1	1921	4236
1	1916	4237
1	1898	4238
1	1869	4239
1	1832	4240
1	1788	4241
1	1747	4242
1	1710	4243
1	1674	4244
1	1645	4245
1	1611	4246
1	1594	4247
1	1592	4248
1	1602	4249
1	1625	4250
1	1656	4251
1	1697	4252
1	1738	4253
1	1782	4254
1	1817	4255
1	1841	4256
1	1854	4257
1	1855	4258
1	1847	4259
1	1819	4260
1	1760	4261
1	1697	4262
1	1644	4263
1	1605	4264
1	1573	4265
1	1553	4266
1	1546	4267
1	1553	4268
1	1577	4269
1	1611	4270
1	1658	4271
1	1704	4272
1	1759	4273
1	1816	4274
1	1856	4275
1	1885	4276
1	1898	4277
1	1886	4278
1	1854	4279
1	1796	4280
1	1733	4281
1	1670	4282
1	1611	4283
1	1571	4284
1	1547	4285
1	1542	4286
1	1551	4287
1	1569	4288
1	1581	4289
1	1596	4290
1	1610	4291
1	1631	4292
1	1647	4293
1	1663	4294
1	1687	4295
1	1712	4296
1	1737	4297
1	1742	4298
1	1748	4299
1	1737	4300
1	1712	4301
1	1690	4302
1	1683	4303
1	1669	4304
1	1660	4305
1	1659	4306
1	1659	4307
1	1655	4308
1	1650	4309
1	1650	4310
1	1655	4311
1	1668	4312
1	1690	4313
1	1736	4314
1	1780	4315
1	1821	4316
1	1849	4317
1	1865	4318
1	1854	4319
1	1823	4340
1	1777	4341
1	1726	4342
1	1675	4343
1	1635	4344
1	1607	4345
1	1590	4346
1	1580	4347
1	1577	4348
1	1585	4349
1	1600	4350
1	1616	4351
1	1647	4352
1	1690	4353
1	1737	4354
1	1787	4355
1	1846	4356
1	1900	4357
1	1944	4358
1	1973	4359
1	1996	4340
1	2010	4341
1	2026	4342
1	2034	4343
1	2043	4344
1	2055	4345
1	2076	4346
1	2095	4347
1	2129	4348
1	2156	4349
1	2183	4350
1	2210	4351
1	2231	4352
1	2236	4353
1	2232	4354
1	2207	4355
1	2172	4356
1	2125	4357
1	2052	4358
1	1974	4359
1	1881	4360
1	1780	4361
1	1684	4362
1	1589	4363
1	1504	4364
1	1439	4365
1	1384	4366
1	1346	4367
1	1319	4368
1	1302	4369
1	1293	4370
1	1299	4371
1	1320	4372
1	1346	4373
1	1382	4374
1	1420	4375
1	1440	4376
1	1464	4377
1	1479	4378
1	1490	4379
1	1489	4380
1	1477	4381
1	1469	4382
1	1465	4383
1	1471	4384
1	1479	4385
1	1486	4386
1	1503	4387
1	1534	4388
1	1566	4389
1	1593	4390
1	1617	4391
1	1649	4392
1	1695	4393
1	1738	4394
1	1775	4395
1	1802	4396
1	1813	4397
1	1803	4398
1	1790	4399
1	1755	4400
1	1711	4401
1	1665	4402
1	1625	4403
1	1602	4404
1	1586	4405
1	1580	4406
1	1582	4407
1	1593	4408
1	1602	4409
1	1620	4410
1	1648	4411
1	1693	4412
1	1738	4413
1	1777	4414
1	1800	4415
1	1821	4416
1	1832	4417
1	1824	4418
1	1814	4419
1	1782	4420
1	1744	4421
1	1723	4422
1	1711	4423
1	1710	4424
1	1708	4425
1	1703	4426
1	1692	4427
1	1674	4428
1	1661	4429
1	1659	4430
1	1659	4431
1	1677	4432
1	1700	4433
1	1733	4434
1	1765	4435
1	1796	4436
1	1818	4437
1	1827	4438
1	1819	4439
1	1795	4440
1	1773	4441
1	1753	4442
1	1731	4443
1	1712	4444
1	1695	4445
1	1670	4446
1	1655	4447
1	1634	4448
1	1624	4449
1	1626	4450
1	1641	4451
1	1677	4452
1	1731	4453
1	1777	4454
1	1817	4455
1	1842	4456
1	1847	4457
1	1842	4458
1	1817	4459
1	1775	4460
1	1728	4461
1	1690	4462
1	1659	4463
1	1646	4464
1	1635	4465
1	1629	4466
1	1629	4467
1	1632	4468
1	1634	4469
1	1639	4470
1	1647	4471
1	1670	4472
1	1700	4473
1	1734	4474
1	1759	4475
1	1772	4476
1	1775	4477
1	1755	4478
1	1737	4479
1	1707	4480
1	1674	4481
1	1660	4482
1	1656	4483
1	1654	4484
1	1654	4485
1	1660	4486
1	1669	4487
1	1683	4488
1	1699	4489
1	1721	4490
1	1749	4491
1	1782	4492
1	1817	4493
1	1854	4494
1	1883	4495
1	1904	4496
1	1911	4497
1	1909	4498
1	1893	4499
1	1863	4500
1	1825	4501
1	1790	4502
1	1762	4503
1	1738	4504
1	1714	4505
1	1696	4506
1	1681	4507
1	1660	4508
1	1651	4509
1	1648	4510
1	1651	4511
1	1667	4512
1	1701	4513
1	1738	4514
1	1775	4515
1	1809	4516
1	1824	4517
1	1827	4518
1	1801	4519
1	1760	4520
1	1710	4521
1	1662	4522
1	1620	4523
1	1602	4524
1	1602	4525
1	1608	4526
1	1628	4527
1	1657	4528
1	1684	4529
1	1702	4530
1	1740	4531
1	1766	4532
1	1802	4533
1	1844	4534
1	1880	4535
1	1901	4536
1	1909	4537
1	1908	4538
1	1895	4539
1	1868	4540
1	1828	4541
1	1787	4542
1	1750	4543
1	1724	4544
1	1706	4545
1	1700	4546
1	1692	4547
1	1687	4548
1	1683	4549
1	1682	4550
1	1697	4551
1	1728	4552
1	1766	4553
1	1822	4554
1	1872	4555
1	1919	4556
1	1956	4557
1	1983	4558
1	1978	4559
1	1957	4560
1	1922	4561
1	1895	4562
1	1872	4563
1	1843	4564
1	1800	4565
1	1756	4566
1	1715	4567
1	1682	4568
1	1664	4569
1	1661	4570
1	1674	4571
1	1706	4572
1	1742	4573
1	1778	4574
1	1818	4575
1	1843	4576
1	1867	4577
1	1877	4578
1	1878	4579
1	1862	4580
1	1843	4581
1	1834	4582
1	1826	4583
1	1825	4584
1	1821	4585
1	1817	4586
1	1803	4587
1	1803	4588
1	1791	4589
1	1788	4590
1	1787	4591
1	1789	4592
1	1791	4593
1	1809	4594
1	1830	4595
1	1850	4596
1	1864	4597
1	1867	4598
1	1867	4599
1	1855	4600
1	1839	4601
1	1827	4602
1	1830	4603
1	1830	4604
1	1827	4605
1	1823	4606
1	1821	4607
1	1819	4608
1	1821	4609
1	1827	4610
1	1841	4611
1	1870	4612
1	1899	4613
1	1922	4614
1	1937	4615
1	1944	4616
1	1946	4617
1	1924	4618
1	1893	4619
1	1848	4620
1	1798	4621
1	1752	4622
1	1723	4623
1	1703	4624
1	1698	4625
1	1705	4626
1	1723	4627
1	1739	4628
1	1766	4629
1	1798	4630
1	1831	4631
1	1860	4632
1	1895	4633
1	1922	4634
1	1942	4635
1	1953	4636
1	1949	4637
1	1934	4638
1	1913	4639
1	1824	4660
1	1752	4661
1	1692	4662
1	1634	4663
1	1602	4664
1	1591	4665
1	1594	4666
1	1613	4667
1	1643	4668
1	1672	4669
1	1701	4670
1	1729	4671
1	1757	4672
1	1782	4673
1	1814	4674
1	1837	4675
1	1857	4676
1	1869	4677
1	1854	4678
1	1822	4679
1	1889	4640
1	1867	4641
1	1851	4642
1	1838	4643
1	1832	4644
1	1825	4645
1	1809	4646
1	1782	4647
1	1768	4648
1	1754	4649
1	1748	4650
1	1751	4651
1	1762	4652
1	1782	4653
1	1817	4654
1	1854	4655
1	1881	4656
1	1900	4657
1	1895	4658
1	1869	4659
1	1778	4680
1	1731	4681
1	1688	4682
1	1651	4683
1	1605	4684
1	1563	4685
1	1514	4686
1	1479	4687
1	1463	4688
1	1467	4689
1	1490	4690
1	1521	4691
1	1555	4692
1	1605	4693
1	1649	4694
1	1694	4695
1	1733	4696
1	1759	4697
1	1761	4698
1	1744	4699
1	1719	4700
1	1688	4701
1	1660	4702
1	1626	4703
1	1598	4704
1	1581	4705
1	1561	4706
1	1553	4707
1	1549	4708
1	1555	4709
1	1570	4710
1	1586	4711
1	1608	4712
1	1634	4713
1	1672	4714
1	1710	4715
1	1747	4716
1	1773	4717
1	1776	4718
1	1764	4719
1	1733	4720
1	1688	4721
1	1655	4722
1	1610	4723
1	1569	4724
1	1530	4725
1	1503	4726
1	1492	4727
1	1489	4728
1	1498	4729
1	1517	4730
1	1538	4731
1	1566	4732
1	1606	4733
1	1641	4734
1	1674	4735
1	1697	4736
1	1711	4737
1	1707	4738
1	1686	4739
1	1656	4740
1	1628	4741
1	1602	4742
1	1583	4743
1	1577	4744
1	1572	4745
1	1564	4746
1	1555	4747
1	1548	4748
1	1562	4749
1	1593	4750
1	1626	4751
1	1661	4752
1	1700	4753
1	1731	4754
1	1754	4755
1	1770	4756
1	1775	4757
1	1760	4758
1	1721	4759
1	1670	4760
1	1620	4761
1	1585	4762
1	1556	4763
1	1539	4764
1	1523	4765
1	1515	4766
1	1513	4767
1	1514	4768
1	1517	4769
1	1529	4770
1	1546	4771
1	1571	4772
1	1593	4773
1	1628	4774
1	1664	4775
1	1703	4776
1	1727	4777
1	1731	4778
1	1730	4779
1	1654	4800
1	1626	4801
1	1605	4802
1	1590	4803
1	1582	4804
1	1581	4805
1	1581	4806
1	1581	4807
1	1580	4808
1	1581	4809
1	1585	4810
1	1595	4811
1	1611	4812
1	1638	4813
1	1660	4814
1	1682	4815
1	1697	4816
1	1707	4817
1	1708	4818
1	1700	4819
1	1724	4780
1	1712	4781
1	1703	4782
1	1686	4783
1	1661	4784
1	1638	4785
1	1613	4786
1	1593	4787
1	1571	4788
1	1550	4789
1	1531	4790
1	1529	4791
1	1540	4792
1	1559	4793
1	1589	4794
1	1619	4795
1	1652	4796
1	1678	4797
1	1689	4798
1	1679	4799
1	1682	4820
1	1652	4821
1	1623	4822
1	1602	4823
1	1593	4824
1	1587	4825
1	1585	4826
1	1590	4827
1	1607	4828
1	1608	4829
1	1622	4830
1	1638	4831
1	1656	4832
1	1686	4833
1	1715	4834
1	1746	4835
1	1767	4836
1	1791	4837
1	1803	4838
1	1793	4839
1	1761	4840
1	1713	4841
1	1667	4842
1	1609	4843
1	1555	4844
1	1503	4845
1	1464	4846
1	1440	4847
1	1438	4848
1	1454	4849
1	1485	4850
1	1526	4851
1	1581	4852
1	1641	4853
1	1701	4854
1	1749	4855
1	1782	4856
1	1814	4857
1	1830	4858
1	1817	4859
1	1772	4860
1	1712	4861
1	1656	4862
1	1607	4863
1	1568	4864
1	1551	4865
1	1542	4866
1	1542	4867
1	1543	4868
1	1555	4869
1	1573	4870
1	1594	4871
1	1625	4872
1	1648	4873
1	1669	4874
1	1683	4875
1	1688	4876
1	1692	4877
1	1686	4878
1	1674	4879
1	1659	4880
1	1634	4881
1	1608	4882
1	1579	4883
1	1553	4884
1	1529	4885
1	1515	4886
1	1526	4887
1	1540	4888
1	1555	4889
1	1572	4890
1	1583	4891
1	1596	4892
1	1616	4893
1	1647	4894
1	1677	4895
1	1705	4896
1	1721	4897
1	1718	4898
1	1703	4899
1	1674	4900
1	1643	4901
1	1625	4902
1	1603	4903
1	1587	4904
1	1584	4905
1	1589	4906
1	1598	4907
1	1616	4908
1	1647	4909
1	1679	4910
1	1714	4911
1	1750	4912
1	1765	4913
1	1784	4914
1	1796	4915
1	1795	4916
1	1789	4917
1	1760	4918
1	1723	4919
1	1672	4920
1	1620	4921
1	1585	4922
1	1566	4923
1	1555	4924
1	1548	4925
1	1548	4926
1	1542	4927
1	1527	4928
1	1512	4929
1	1497	4930
1	1497	4931
1	1517	4932
1	1567	4933
1	1613	4934
1	1654	4935
1	1685	4936
1	1712	4937
1	1729	4938
1	1734	4939
1	1724	4940
1	1701	4941
1	1671	4942
1	1634	4943
1	1604	4944
1	1577	4945
1	1555	4946
1	1544	4947
1	1548	4948
1	1557	4949
1	1581	4950
1	1607	4951
1	1641	4952
1	1684	4953
1	1720	4954
1	1748	4955
1	1764	4956
1	1761	4957
1	1746	4958
1	1733	4959
1	1717	4980
1	1694	4981
1	1668	4982
1	1647	4983
1	1629	4984
1	1620	4985
1	1608	4986
1	1607	4987
1	1618	4988
1	1643	4989
1	1679	4990
1	1728	4991
1	1777	4992
1	1832	4993
1	1857	4994
1	1869	4995
1	1865	4996
1	1844	4997
1	1817	4998
1	1787	4999
1	1751	5000
1	1715	5001
1	1692	5002
1	1665	5003
1	1648	5004
1	1633	5005
1	1619	5006
1	1621	5007
1	1634	5008
1	1643	5009
1	1648	5010
1	1661	5011
1	1687	5012
1	1720	5013
1	1742	5014
1	1749	5015
1	1746	5016
1	1739	5017
1	1724	5018
1	1704	5019
1	1710	4960
1	1680	4961
1	1665	4962
1	1650	4963
1	1634	4964
1	1616	4965
1	1598	4966
1	1586	4967
1	1579	4968
1	1579	4969
1	1592	4970
1	1611	4971
1	1643	4972
1	1674	4973
1	1710	4974
1	1740	4975
1	1759	4976
1	1757	4977
1	1751	4978
1	1738	4979
1	1673	5020
1	1626	5021
1	1581	5022
1	1542	5023
1	1517	5024
1	1503	5025
1	1503	5026
1	1512	5027
1	1526	5028
1	1543	5029
1	1571	5030
1	1598	5031
1	1630	5032
1	1657	5033
1	1680	5034
1	1697	5035
1	1703	5036
1	1705	5037
1	1690	5038
1	1660	5039
1	1658	5080
1	1634	5081
1	1634	5082
1	1625	5083
1	1616	5084
1	1611	5085
1	1610	5086
1	1625	5087
1	1643	5088
1	1661	5089
1	1678	5090
1	1698	5091
1	1729	5092
1	1754	5093
1	1780	5094
1	1798	5095
1	1797	5096
1	1770	5097
1	1738	5098
1	1686	5099
1	1634	5100
1	1589	5101
1	1566	5102
1	1563	5103
1	1594	5104
1	1654	5105
1	1738	5106
1	1842	5107
1	1935	5108
1	2030	5109
1	2119	5110
1	2201	5111
1	2284	5112
1	2354	5113
1	2397	5114
1	2420	5115
1	2421	5116
1	2397	5117
1	2348	5118
1	2287	5119
1	1683	5060
1	1638	5061
1	1602	5062
1	1571	5063
1	1554	5064
1	1542	5065
1	1539	5066
1	1544	5067
1	1548	5068
1	1557	5069
1	1574	5070
1	1592	5071
1	1613	5072
1	1639	5073
1	1661	5074
1	1681	5075
1	1697	5076
1	1703	5077
1	1694	5078
1	1680	5079
1	1611	5040
1	1568	5041
1	1536	5042
1	1513	5043
1	1507	5044
1	1514	5045
1	1529	5046
1	1549	5047
1	1566	5048
1	1586	5049
1	1606	5050
1	1621	5051
1	1645	5052
1	1683	5053
1	1712	5054
1	1738	5055
1	1757	5056
1	1764	5057
1	1755	5058
1	1725	5059
1	2199	5120
1	2106	5121
1	2012	5122
1	1895	5123
1	1787	5124
1	1687	5125
1	1601	5126
1	1519	5127
1	1454	5128
1	1396	5129
1	1342	5130
1	1293	5131
1	1273	5132
1	1265	5133
1	1267	5134
1	1276	5135
1	1289	5136
1	1294	5137
1	1296	5138
1	1289	5139
1	1267	5140
1	1241	5141
1	1221	5142
1	1215	5143
1	1215	5144
1	1215	5145
1	1228	5146
1	1242	5147
1	1268	5148
1	1307	5149
1	1351	5150
1	1404	5151
1	1459	5152
1	1522	5153
1	1585	5154
1	1646	5155
1	1693	5156
1	1723	5157
1	1738	5158
1	1726	5159
1	1691	5160
1	1649	5161
1	1609	5162
1	1579	5163
1	1555	5164
1	1547	5165
1	1554	5166
1	1575	5167
1	1594	5168
1	1620	5169
1	1642	5170
1	1670	5171
1	1706	5172
1	1733	5173
1	1751	5174
1	1767	5175
1	1773	5176
1	1766	5177
1	1757	5178
1	1742	5179
1	1731	5180
1	1724	5181
1	1727	5182
1	1728	5183
1	1733	5184
1	1724	5185
1	1705	5186
1	1675	5187
1	1648	5188
1	1611	5189
1	1579	5190
1	1557	5191
1	1557	5192
1	1584	5193
1	1626	5194
1	1674	5195
1	1719	5196
1	1755	5197
1	1772	5198
1	1778	5199
1	1767	5200
1	1743	5201
1	1712	5202
1	1685	5203
1	1648	5204
1	1620	5205
1	1591	5206
1	1571	5207
1	1568	5208
1	1575	5209
1	1587	5210
1	1609	5211
1	1636	5212
1	1665	5213
1	1701	5214
1	1729	5215
1	1752	5216
1	1772	5217
1	1769	5218
1	1756	5219
1	1733	5220
1	1701	5221
1	1674	5222
1	1651	5223
1	1634	5224
1	1625	5225
1	1620	5226
1	1619	5227
1	1607	5228
1	1598	5229
1	1600	5230
1	1620	5231
1	1656	5232
1	1695	5233
1	1729	5234
1	1764	5235
1	1791	5236
1	1795	5237
1	1778	5238
1	1749	5239
1	1803	5260
1	1774	5261
1	1751	5262
1	1720	5263
1	1694	5264
1	1670	5265
1	1652	5266
1	1638	5267
1	1628	5268
1	1629	5269
1	1634	5270
1	1661	5271
1	1699	5272
1	1738	5273
1	1785	5274
1	1834	5275
1	1869	5276
1	1896	5277
1	1895	5278
1	1868	5279
1	1712	5240
1	1686	5241
1	1669	5242
1	1647	5243
1	1629	5244
1	1613	5245
1	1602	5246
1	1590	5247
1	1584	5248
1	1580	5249
1	1587	5250
1	1612	5251
1	1648	5252
1	1692	5253
1	1738	5254
1	1785	5255
1	1824	5256
1	1846	5257
1	1844	5258
1	1834	5259
1	1824	5280
1	1766	5281
1	1719	5282
1	1679	5283
1	1657	5284
1	1644	5285
1	1634	5286
1	1628	5287
1	1634	5288
1	1645	5289
1	1647	5290
1	1648	5291
1	1655	5292
1	1681	5293
1	1701	5294
1	1728	5295
1	1743	5296
1	1751	5297
1	1748	5298
1	1733	5299
1	1710	5300
1	1683	5301
1	1658	5302
1	1632	5303
1	1616	5304
1	1620	5305
1	1629	5306
1	1634	5307
1	1643	5308
1	1658	5309
1	1686	5310
1	1722	5311
1	1752	5312
1	1791	5313
1	1830	5314
1	1859	5315
1	1878	5316
1	1886	5317
1	1868	5318
1	1839	5319
1	1792	5320
1	1762	5321
1	1739	5322
1	1708	5323
1	1673	5324
1	1634	5325
1	1609	5326
1	1605	5327
1	1615	5328
1	1636	5329
1	1674	5330
1	1719	5331
1	1764	5332
1	1816	5333
1	1856	5334
1	1882	5335
1	1895	5336
1	1891	5337
1	1870	5338
1	1834	5339
1	1787	5340
1	1746	5341
1	1726	5342
1	1711	5343
1	1702	5344
1	1699	5345
1	1701	5346
1	1712	5347
1	1721	5348
1	1737	5349
1	1757	5350
1	1791	5351
1	1839	5352
1	1882	5353
1	1921	5354
1	1947	5355
1	1953	5356
1	1949	5357
1	1935	5358
1	1913	5359
1	1875	5360
1	1839	5361
1	1802	5362
1	1767	5363
1	1754	5364
1	1759	5365
1	1764	5366
1	1782	5367
1	1802	5368
1	1830	5369
1	1850	5370
1	1875	5371
1	1896	5372
1	1919	5373
1	1932	5374
1	1931	5375
1	1921	5376
1	1898	5377
1	1857	5378
1	1816	5379
1	1861	5400
1	1829	5401
1	1790	5402
1	1751	5403
1	1724	5404
1	1706	5405
1	1695	5406
1	1686	5407
1	1682	5408
1	1686	5409
1	1693	5410
1	1714	5411
1	1747	5412
1	1786	5413
1	1813	5414
1	1823	5415
1	1836	5416
1	1840	5417
1	1830	5418
1	1812	5419
1	1767	5380
1	1731	5381
1	1712	5382
1	1700	5383
1	1703	5384
1	1716	5385
1	1728	5386
1	1746	5387
1	1763	5388
1	1778	5389
1	1793	5390
1	1821	5391
1	1855	5392
1	1881	5393
1	1911	5394
1	1930	5395
1	1943	5396
1	1940	5397
1	1925	5398
1	1895	5399
1	1777	5420
1	1739	5421
1	1711	5422
1	1686	5423
1	1674	5424
1	1677	5425
1	1686	5426
1	1697	5427
1	1705	5428
1	1703	5429
1	1703	5430
1	1690	5431
1	1686	5432
1	1682	5433
1	1685	5434
1	1687	5435
1	1691	5436
1	1683	5437
1	1662	5438
1	1634	5439
1	1598	5440
1	1566	5441
1	1535	5442
1	1513	5443
1	1508	5444
1	1523	5445
1	1539	5446
1	1567	5447
1	1590	5448
1	1611	5449
1	1626	5450
1	1643	5451
1	1660	5452
1	1674	5453
1	1696	5454
1	1720	5455
1	1742	5456
1	1755	5457
1	1764	5458
1	1751	5459
1	1721	5460
1	1686	5461
1	1647	5462
1	1607	5463
1	1567	5464
1	1534	5465
1	1503	5466
1	1484	5467
1	1468	5468
1	1467	5469
1	1468	5470
1	1477	5471
1	1504	5472
1	1531	5473
1	1556	5474
1	1582	5475
1	1602	5476
1	1609	5477
1	1608	5478
1	1606	5479
1	1587	5480
1	1568	5481
1	1550	5482
1	1529	5483
1	1512	5484
1	1493	5485
1	1479	5486
1	1476	5487
1	1485	5488
1	1494	5489
1	1507	5490
1	1520	5491
1	1541	5492
1	1555	5493
1	1574	5494
1	1585	5495
1	1592	5496
1	1587	5497
1	1574	5498
1	1555	5499
1	1533	5500
1	1516	5501
1	1502	5502
1	1494	5503
1	1490	5504
1	1498	5505
1	1503	5506
1	1518	5507
1	1535	5508
1	1556	5509
1	1580	5510
1	1605	5511
1	1634	5512
1	1660	5513
1	1688	5514
1	1715	5515
1	1740	5516
1	1762	5517
1	1766	5518
1	1752	5519
1	1525	5540
1	1503	5541
1	1491	5542
1	1471	5543
1	1452	5544
1	1442	5545
1	1440	5546
1	1446	5547
1	1466	5548
1	1481	5549
1	1502	5550
1	1525	5551
1	1554	5552
1	1584	5553
1	1610	5554
1	1630	5555
1	1648	5556
1	1663	5557
1	1662	5558
1	1651	5559
1	1713	5520
1	1670	5521
1	1629	5522
1	1590	5523
1	1556	5524
1	1533	5525
1	1518	5526
1	1517	5527
1	1517	5528
1	1525	5529
1	1536	5530
1	1555	5531
1	1575	5532
1	1587	5533
1	1587	5534
1	1582	5535
1	1581	5536
1	1582	5537
1	1569	5538
1	1547	5539
1	1618	5560
1	1581	5561
1	1556	5562
1	1532	5563
1	1516	5564
1	1503	5565
1	1499	5566
1	1503	5567
1	1517	5568
1	1531	5569
1	1546	5570
1	1557	5571
1	1574	5572
1	1581	5573
1	1583	5574
1	1589	5575
1	1595	5576
1	1605	5577
1	1598	5578
1	1581	5579
1	1555	5580
1	1533	5581
1	1519	5582
1	1511	5583
1	1514	5584
1	1525	5585
1	1530	5586
1	1548	5587
1	1570	5588
1	1594	5589
1	1616	5590
1	1639	5591
1	1664	5592
1	1688	5593
1	1698	5594
1	1692	5595
1	1682	5596
1	1665	5597
1	1652	5598
1	1634	5599
1	1607	5600
1	1590	5601
1	1579	5602
1	1559	5603
1	1543	5604
1	1529	5605
1	1517	5606
1	1513	5607
1	1521	5608
1	1530	5609
1	1542	5610
1	1562	5611
1	1583	5612
1	1607	5613
1	1631	5614
1	1643	5615
1	1648	5616
1	1649	5617
1	1635	5618
1	1617	5619
1	1589	5620
1	1557	5621
1	1539	5622
1	1517	5623
1	1492	5624
1	1469	5625
1	1449	5626
1	1440	5627
1	1439	5628
1	1449	5629
1	1472	5630
1	1503	5631
1	1543	5632
1	1586	5633
1	1616	5634
1	1631	5635
1	1634	5636
1	1625	5637
1	1615	5638
1	1603	5639
1	1581	5640
1	1544	5641
1	1514	5642
1	1482	5643
1	1472	5644
1	1472	5645
1	1492	5646
1	1529	5647
1	1556	5648
1	1581	5649
1	1602	5650
1	1621	5651
1	1642	5652
1	1661	5653
1	1673	5654
1	1678	5655
1	1678	5656
1	1669	5657
1	1645	5658
1	1607	5659
1	1564	5660
1	1521	5661
1	1481	5662
1	1443	5663
1	1420	5664
1	1400	5665
1	1384	5666
1	1384	5667
1	1384	5668
1	1400	5669
1	1420	5670
1	1447	5671
1	1487	5672
1	1535	5673
1	1584	5674
1	1626	5675
1	1657	5676
1	1683	5677
1	1686	5678
1	1672	5679
1	1634	5680
1	1590	5681
1	1556	5682
1	1527	5683
1	1504	5684
1	1503	5685
1	1505	5686
1	1511	5687
1	1516	5688
1	1514	5689
1	1515	5690
1	1520	5691
1	1533	5692
1	1549	5693
1	1570	5694
1	1593	5695
1	1616	5696
1	1633	5697
1	1634	5698
1	1611	5699
1	1575	5700
1	1536	5701
1	1503	5702
1	1477	5703
1	1455	5704
1	1439	5705
1	1432	5706
1	1436	5707
1	1437	5708
1	1449	5709
1	1464	5710
1	1486	5711
1	1517	5712
1	1542	5713
1	1567	5714
1	1589	5715
1	1605	5716
1	1605	5717
1	1598	5718
1	1584	5719
1	1559	5720
1	1529	5721
1	1503	5722
1	1472	5723
1	1455	5724
1	1447	5725
1	1440	5726
1	1447	5727
1	1461	5728
1	1477	5729
1	1486	5730
1	1503	5731
1	1530	5732
1	1561	5733
1	1595	5734
1	1626	5735
1	1644	5736
1	1645	5737
1	1628	5738
1	1596	5739
1	1555	5740
1	1521	5741
1	1497	5742
1	1476	5743
1	1464	5744
1	1458	5745
1	1459	5746
1	1475	5747
1	1481	5748
1	1490	5749
1	1503	5750
1	1528	5751
1	1554	5752
1	1569	5753
1	1582	5754
1	1594	5755
1	1607	5756
1	1608	5757
1	1607	5758
1	1581	5759
1	1546	5760
1	1511	5761
1	1476	5762
1	1440	5763
1	1411	5764
1	1397	5765
1	1398	5766
1	1416	5767
1	1435	5768
1	1461	5769
1	1489	5770
1	1516	5771
1	1555	5772
1	1598	5773
1	1645	5774
1	1680	5775
1	1704	5776
1	1715	5777
1	1701	5778
1	1667	5779
1	1620	5780
1	1566	5781
1	1508	5782
1	1462	5783
1	1439	5784
1	1429	5785
1	1425	5786
1	1435	5787
1	1445	5788
1	1461	5789
1	1480	5790
1	1508	5791
1	1543	5792
1	1581	5793
1	1605	5794
1	1620	5795
1	1629	5796
1	1618	5797
1	1590	5798
1	1555	5799
1	1520	5800
1	1490	5801
1	1474	5802
1	1477	5803
1	1490	5804
1	1510	5805
1	1527	5806
1	1530	5807
1	1536	5808
1	1549	5809
1	1564	5810
1	1586	5811
1	1615	5812
1	1643	5813
1	1667	5814
1	1691	5815
1	1701	5816
1	1692	5817
1	1673	5818
1	1634	5819
1	1585	5820
1	1540	5821
1	1503	5822
1	1478	5823
1	1466	5824
1	1463	5825
1	1468	5826
1	1477	5827
1	1487	5828
1	1503	5829
1	1526	5830
1	1555	5831
1	1584	5832
1	1617	5833
1	1644	5834
1	1661	5835
1	1675	5836
1	1694	5837
1	1712	5838
1	1713	5839
1	1701	5840
1	1685	5841
1	1661	5842
1	1633	5843
1	1608	5844
1	1589	5845
1	1570	5846
1	1551	5847
1	1535	5848
1	1523	5849
1	1508	5850
1	1505	5851
1	1515	5852
1	1530	5853
1	1555	5854
1	1580	5855
1	1602	5856
1	1618	5857
1	1619	5858
1	1608	5859
1	1597	5860
1	1585	5861
1	1581	5862
1	1567	5863
1	1549	5864
1	1526	5865
1	1503	5866
1	1487	5867
1	1476	5868
1	1466	5869
1	1469	5870
1	1485	5871
1	1507	5872
1	1529	5873
1	1552	5874
1	1566	5875
1	1574	5876
1	1578	5877
1	1564	5878
1	1539	5879
1	1533	5900
1	1512	5901
1	1495	5902
1	1478	5903
1	1478	5904
1	1487	5905
1	1490	5906
1	1485	5907
1	1481	5908
1	1464	5909
1	1453	5910
1	1459	5911
1	1477	5912
1	1505	5913
1	1536	5914
1	1555	5915
1	1571	5916
1	1581	5917
1	1579	5918
1	1564	5919
1	1507	5880
1	1480	5881
1	1466	5882
1	1459	5883
1	1458	5884
1	1453	5885
1	1447	5886
1	1434	5887
1	1429	5888
1	1433	5889
1	1440	5890
1	1453	5891
1	1478	5892
1	1515	5893
1	1544	5894
1	1564	5895
1	1576	5896
1	1581	5897
1	1576	5898
1	1556	5899
1	1538	5920
1	1506	5921
1	1485	5922
1	1466	5923
1	1458	5924
1	1454	5925
1	1454	5926
1	1456	5927
1	1450	5928
1	1449	5929
1	1448	5930
1	1458	5931
1	1476	5932
1	1500	5933
1	1517	5934
1	1538	5935
1	1553	5936
1	1561	5937
1	1556	5938
1	1535	5939
1	1503	5940
1	1469	5941
1	1449	5942
1	1431	5943
1	1429	5944
1	1440	5945
1	1463	5946
1	1492	5947
1	1527	5948
1	1571	5949
1	1625	5950
1	1687	5951
1	1760	5952
1	1843	5953
1	1910	5954
1	1973	5955
1	2024	5956
1	2060	5957
1	2080	5958
1	2084	5959
1	2070	5960
1	2050	5961
1	2028	5962
1	2006	5963
1	1989	5964
1	1958	5965
1	1922	5966
1	1895	5967
1	1865	5968
1	1835	5969
1	1793	5970
1	1764	5971
1	1747	5972
1	1739	5973
1	1725	5974
1	1695	5975
1	1651	5976
1	1592	5977
1	1514	5978
1	1432	5979
1	1432	6000
1	1424	6001
1	1424	6002
1	1433	6003
1	1441	6004
1	1451	6005
1	1463	6006
1	1476	6007
1	1478	6008
1	1485	6009
1	1494	6010
1	1511	6011
1	1526	6012
1	1537	6013
1	1544	6014
1	1555	6015
1	1564	6016
1	1561	6017
1	1553	6018
1	1536	6019
1	1335	5980
1	1254	5981
1	1188	5982
1	1124	5983
1	1062	5984
1	1011	5985
1	970	5986
1	944	5987
1	941	5988
1	959	5989
1	999	5990
1	1057	5991
1	1129	5992
1	1207	5993
1	1282	5994
1	1353	5995
1	1410	5996
1	1436	5997
1	1446	5998
1	1440	5999
1	1520	6020
1	1513	6021
1	1513	6022
1	1507	6023
1	1503	6024
1	1503	6025
1	1497	6026
1	1495	6027
1	1490	6028
1	1488	6029
1	1503	6030
1	1534	6031
1	1566	6032
1	1602	6033
1	1632	6034
1	1647	6035
1	1658	6036
1	1660	6037
1	1651	6038
1	1624	6039
1	1589	6040
1	1557	6041
1	1526	6042
1	1501	6043
1	1472	6044
1	1450	6045
1	1440	6046
1	1448	6047
1	1460	6048
1	1477	6049
1	1502	6050
1	1533	6051
1	1575	6052
1	1613	6053
1	1652	6054
1	1682	6055
1	1693	6056
1	1686	6057
1	1674	6058
1	1641	6059
1	1591	6060
1	1541	6061
1	1499	6062
1	1474	6063
1	1474	6064
1	1478	6065
1	1490	6066
1	1500	6067
1	1503	6068
1	1514	6069
1	1531	6070
1	1565	6071
1	1603	6072
1	1634	6073
1	1660	6074
1	1674	6075
1	1677	6076
1	1670	6077
1	1652	6078
1	1638	6079
1	1623	6080
1	1611	6081
1	1608	6082
1	1609	6083
1	1616	6084
1	1620	6085
1	1616	6086
1	1616	6087
1	1606	6088
1	1593	6089
1	1589	6090
1	1593	6091
1	1602	6092
1	1611	6093
1	1634	6094
1	1659	6095
1	1681	6096
1	1688	6097
1	1668	6098
1	1638	6099
1	1595	6100
1	1555	6101
1	1526	6102
1	1497	6103
1	1476	6104
1	1454	6105
1	1450	6106
1	1458	6107
1	1485	6108
1	1517	6109
1	1556	6110
1	1607	6111
1	1667	6112
1	1717	6113
1	1764	6114
1	1810	6115
1	1838	6116
1	1834	6117
1	1803	6118
1	1751	6119
1	1635	6140
1	1628	6141
1	1620	6142
1	1613	6143
1	1611	6144
1	1608	6145
1	1605	6146
1	1593	6147
1	1592	6148
1	1590	6149
1	1605	6150
1	1633	6151
1	1669	6152
1	1711	6153
1	1752	6154
1	1791	6155
1	1818	6156
1	1818	6157
1	1791	6158
1	1764	6159
1	1697	6120
1	1646	6121
1	1593	6122
1	1555	6123
1	1539	6124
1	1541	6125
1	1555	6126
1	1580	6127
1	1592	6128
1	1613	6129
1	1643	6130
1	1668	6131
1	1688	6132
1	1697	6133
1	1698	6134
1	1701	6135
1	1698	6136
1	1693	6137
1	1677	6138
1	1657	6139
1	1728	6160
1	1699	6161
1	1685	6162
1	1673	6163
1	1665	6164
1	1660	6165
1	1652	6166
1	1647	6167
1	1659	6168
1	1665	6169
1	1680	6170
1	1709	6171
1	1747	6172
1	1796	6173
1	1850	6174
1	1886	6175
1	1901	6176
1	1906	6177
1	1886	6178
1	1844	6179
1	1793	6180
1	1749	6181
1	1711	6182
1	1684	6183
1	1667	6184
1	1659	6185
1	1649	6186
1	1634	6187
1	1622	6188
1	1625	6189
1	1634	6190
1	1655	6191
1	1683	6192
1	1724	6193
1	1764	6194
1	1796	6195
1	1822	6196
1	1835	6197
1	1836	6198
1	1818	6199
1	1795	6200
1	1780	6201
1	1765	6202
1	1753	6203
1	1751	6204
1	1755	6205
1	1764	6206
1	1780	6207
1	1801	6208
1	1822	6209
1	1844	6210
1	1877	6211
1	1912	6212
1	1944	6213
1	1960	6214
1	1962	6215
1	1949	6216
1	1922	6217
1	1875	6218
1	1835	6219
1	1787	6220
1	1744	6221
1	1724	6222
1	1713	6223
1	1719	6224
1	1734	6225
1	1752	6226
1	1777	6227
1	1791	6228
1	1801	6229
1	1817	6230
1	1841	6231
1	1869	6232
1	1904	6233
1	1937	6234
1	1960	6235
1	1975	6236
1	1977	6237
1	1971	6238
1	1957	6239
1	1930	6240
1	1907	6241
1	1894	6242
1	1875	6243
1	1868	6244
1	1869	6245
1	1880	6246
1	1888	6247
1	1884	6248
1	1882	6249
1	1886	6250
1	1898	6251
1	1922	6252
1	1957	6253
1	1979	6254
1	1979	6255
1	1970	6256
1	1948	6257
1	1914	6258
1	1872	6259
1	1833	6260
1	1800	6261
1	1778	6262
1	1751	6263
1	1730	6264
1	1712	6265
1	1703	6266
1	1701	6267
1	1703	6268
1	1712	6269
1	1729	6270
1	1755	6271
1	1795	6272
1	1838	6273
1	1865	6274
1	1885	6275
1	1895	6276
1	1895	6277
1	1871	6278
1	1843	6279
1	1801	6280
1	1762	6281
1	1733	6282
1	1699	6283
1	1675	6284
1	1661	6285
1	1663	6286
1	1670	6287
1	1682	6288
1	1698	6289
1	1723	6290
1	1764	6291
1	1821	6292
1	1867	6293
1	1898	6294
1	1910	6295
1	1903	6296
1	1881	6297
1	1858	6298
1	1817	6299
1	1767	6300
1	1733	6301
1	1704	6302
1	1686	6303
1	1679	6304
1	1677	6305
1	1672	6306
1	1661	6307
1	1648	6308
1	1642	6309
1	1641	6310
1	1652	6311
1	1672	6312
1	1705	6313
1	1731	6314
1	1751	6315
1	1776	6316
1	1800	6317
1	1817	6318
1	1815	6319
1	1798	6320
1	1790	6321
1	1777	6322
1	1754	6323
1	1741	6324
1	1736	6325
1	1736	6326
1	1741	6327
1	1740	6328
1	1734	6329
1	1742	6330
1	1760	6331
1	1772	6332
1	1791	6333
1	1814	6334
1	1824	6335
1	1832	6336
1	1825	6337
1	1803	6338
1	1775	6339
1	1744	6340
1	1718	6341
1	1699	6342
1	1688	6343
1	1665	6344
1	1657	6345
1	1643	6346
1	1643	6347
1	1638	6348
1	1647	6349
1	1670	6350
1	1711	6351
1	1757	6352
1	1800	6353
1	1843	6354
1	1868	6355
1	1881	6356
1	1878	6357
1	1863	6358
1	1836	6359
1	1734	6400
1	1701	6401
1	1688	6402
1	1674	6403
1	1660	6404
1	1658	6405
1	1654	6406
1	1652	6407
1	1660	6408
1	1676	6409
1	1706	6410
1	1743	6411
1	1790	6412
1	1829	6413
1	1868	6414
1	1897	6415
1	1922	6416
1	1930	6417
1	1922	6418
1	1890	6419
1	1855	6380
1	1826	6381
1	1801	6382
1	1781	6383
1	1765	6384
1	1752	6385
1	1740	6386
1	1738	6387
1	1738	6388
1	1739	6389
1	1749	6390
1	1765	6391
1	1800	6392
1	1841	6393
1	1862	6394
1	1871	6395
1	1874	6396
1	1866	6397
1	1829	6398
1	1780	6399
1	1803	6360
1	1778	6361
1	1752	6362
1	1738	6363
1	1726	6364
1	1716	6365
1	1710	6366
1	1698	6367
1	1686	6368
1	1691	6369
1	1708	6370
1	1746	6371
1	1803	6372
1	1869	6373
1	1922	6374
1	1958	6375
1	1969	6376
1	1953	6377
1	1924	6378
1	1892	6379
1	1844	6420
1	1800	6421
1	1764	6422
1	1744	6423
1	1733	6424
1	1730	6425
1	1733	6426
1	1740	6427
1	1752	6428
1	1777	6429
1	1809	6430
1	1844	6431
1	1886	6432
1	1922	6433
1	1953	6434
1	1981	6435
1	1998	6436
1	2000	6437
1	1976	6438
1	1938	6439
1	1890	6440
1	1844	6441
1	1817	6442
1	1791	6443
1	1791	6444
1	1791	6445
1	1803	6446
1	1817	6447
1	1836	6448
1	1843	6449
1	1849	6450
1	1857	6451
1	1869	6452
1	1895	6453
1	1917	6454
1	1947	6455
1	1971	6456
1	1976	6457
1	1953	6458
1	1921	6459
1	1877	6460
1	1838	6461
1	1795	6462
1	1754	6463
1	1724	6464
1	1711	6465
1	1706	6466
1	1710	6467
1	1720	6468
1	1737	6469
1	1760	6470
1	1787	6471
1	1826	6472
1	1855	6473
1	1882	6474
1	1907	6475
1	1914	6476
1	1914	6477
1	1903	6478
1	1878	6479
1	1856	6480
1	1843	6481
1	1825	6482
1	1813	6483
1	1794	6484
1	1789	6485
1	1791	6486
1	1796	6487
1	1808	6488
1	1817	6489
1	1831	6490
1	1843	6491
1	1855	6492
1	1862	6493
1	1870	6494
1	1882	6495
1	1899	6496
1	1908	6497
1	1908	6498
1	1899	6499
1	1895	6500
1	1891	6501
1	1887	6502
1	1870	6503
1	1851	6504
1	1834	6505
1	1820	6506
1	1819	6507
1	1819	6508
1	1822	6509
1	1835	6510
1	1854	6511
1	1873	6512
1	1895	6513
1	1914	6514
1	1932	6515
1	1935	6516
1	1922	6517
1	1895	6518
1	1860	6519
1	1817	6520
1	1779	6521
1	1764	6522
1	1754	6523
1	1764	6524
1	1776	6525
1	1791	6526
1	1814	6527
1	1837	6528
1	1860	6529
1	1888	6530
1	1909	6531
1	1930	6532
1	1948	6533
1	1960	6534
1	1966	6535
1	1964	6536
1	1948	6537
1	1909	6538
1	1855	6539
1	1809	6540
1	1764	6541
1	1733	6542
1	1698	6543
1	1674	6544
1	1665	6545
1	1683	6546
1	1708	6547
1	1731	6548
1	1763	6549
1	1803	6550
1	1856	6551
1	1904	6552
1	1960	6553
1	1998	6554
1	2025	6555
1	2039	6556
1	2040	6557
1	2024	6558
1	1989	6559
1	1943	6560
1	1899	6561
1	1867	6562
1	1836	6563
1	1821	6564
1	1826	6565
1	1843	6566
1	1869	6567
1	1886	6568
1	1896	6569
1	1908	6570
1	1922	6571
1	1934	6572
1	1941	6573
1	1940	6574
1	1940	6575
1	1944	6576
1	1935	6577
1	1908	6578
1	1870	6579
1	1798	6600
1	1755	6601
1	1728	6602
1	1718	6603
1	1726	6604
1	1747	6605
1	1779	6606
1	1820	6607
1	1850	6608
1	1873	6609
1	1895	6610
1	1919	6611
1	1938	6612
1	1953	6613
1	1953	6614
1	1947	6615
1	1937	6616
1	1933	6617
1	1922	6618
1	1895	6619
1	1836	6580
1	1808	6581
1	1790	6582
1	1778	6583
1	1770	6584
1	1764	6585
1	1764	6586
1	1769	6587
1	1781	6588
1	1792	6589
1	1819	6590
1	1858	6591
1	1901	6592
1	1936	6593
1	1963	6594
1	1973	6595
1	1962	6596
1	1944	6597
1	1907	6598
1	1857	6599
1	1865	6620
1	1836	6621
1	1817	6622
1	1799	6623
1	1798	6624
1	1796	6625
1	1796	6626
1	1809	6627
1	1815	6628
1	1817	6629
1	1837	6630
1	1856	6631
1	1882	6632
1	1913	6633
1	1940	6634
1	1972	6635
1	1992	6636
1	2000	6637
1	1993	6638
1	1974	6639
1	1948	6640
1	1921	6641
1	1883	6642
1	1845	6643
1	1817	6644
1	1790	6645
1	1773	6646
1	1778	6647
1	1791	6648
1	1809	6649
1	1827	6650
1	1849	6651
1	1881	6652
1	1908	6653
1	1942	6654
1	1971	6655
1	1989	6656
1	1999	6657
1	2000	6658
1	1989	6659
1	1985	6660
1	1989	6661
1	1989	6662
1	1984	6663
1	1974	6664
1	1962	6665
1	1949	6666
1	1942	6667
1	1926	6668
1	1923	6669
1	1932	6670
1	1948	6671
1	1977	6672
1	1999	6673
1	2012	6674
1	2017	6675
1	2013	6676
1	1995	6677
1	1965	6678
1	1922	6679
1	1882	6680
1	1850	6681
1	1825	6682
1	1799	6683
1	1787	6684
1	1783	6685
1	1791	6686
1	1818	6687
1	1840	6688
1	1854	6689
1	1869	6690
1	1886	6691
1	1910	6692
1	1924	6693
1	1933	6694
1	1926	6695
1	1917	6696
1	1899	6697
1	1872	6698
1	1850	6699
1	1826	6700
1	1800	6701
1	1776	6702
1	1763	6703
1	1752	6704
1	1746	6705
1	1751	6706
1	1762	6707
1	1767	6708
1	1777	6709
1	1790	6710
1	1809	6711
1	1834	6712
1	1852	6713
1	1871	6714
1	1890	6715
1	1895	6716
1	1895	6717
1	1873	6718
1	1845	6719
1	1817	6720
1	1783	6721
1	1755	6722
1	1738	6723
1	1724	6724
1	1718	6725
1	1713	6726
1	1712	6727
1	1712	6728
1	1716	6729
1	1735	6730
1	1762	6731
1	1802	6732
1	1852	6733
1	1881	6734
1	1920	6735
1	1940	6736
1	1944	6737
1	1932	6738
1	1906	6739
1	1800	6760
1	1763	6761
1	1720	6762
1	1691	6763
1	1660	6764
1	1634	6765
1	1625	6766
1	1625	6767
1	1634	6768
1	1647	6769
1	1674	6770
1	1710	6771
1	1760	6772
1	1812	6773
1	1865	6774
1	1909	6775
1	1935	6776
1	1948	6777
1	1960	6778
1	1959	6779
1	1869	6740
1	1832	6741
1	1790	6742
1	1753	6743
1	1733	6744
1	1715	6745
1	1715	6746
1	1726	6747
1	1738	6748
1	1746	6749
1	1755	6750
1	1773	6751
1	1816	6752
1	1857	6753
1	1895	6754
1	1913	6755
1	1910	6756
1	1899	6757
1	1872	6758
1	1843	6759
1	1958	6780
1	1965	6781
1	1974	6782
1	1983	6783
1	2000	6784
1	2025	6785
1	2058	6786
1	2105	6787
1	2156	6788
1	2217	6789
1	2283	6790
1	2341	6791
1	2400	6792
1	2436	6793
1	2454	6794
1	2451	6795
1	2425	6796
1	2384	6797
1	2328	6798
1	2260	6799
1	2175	6800
1	2094	6801
1	2011	6802
1	1922	6803
1	1846	6804
1	1778	6805
1	1718	6806
1	1666	6807
1	1633	6808
1	1589	6809
1	1553	6810
1	1520	6811
1	1494	6812
1	1474	6813
1	1454	6814
1	1447	6815
1	1440	6816
1	1430	6817
1	1407	6818
1	1380	6819
1	1368	6820
1	1366	6821
1	1377	6822
1	1406	6823
1	1440	6824
1	1480	6825
1	1527	6826
1	1580	6827
1	1638	6828
1	1674	6829
1	1728	6830
1	1767	6831
1	1803	6832
1	1833	6833
1	1851	6834
1	1861	6835
1	1871	6836
1	1886	6837
1	1895	6838
1	1883	6839
1	1856	6840
1	1825	6841
1	1793	6842
1	1761	6843
1	1733	6844
1	1712	6845
1	1704	6846
1	1703	6847
1	1708	6848
1	1725	6849
1	1750	6850
1	1787	6851
1	1831	6852
1	1875	6853
1	1905	6854
1	1922	6855
1	1927	6856
1	1922	6857
1	1895	6858
1	1857	6859
1	1814	6860
1	1769	6861
1	1737	6862
1	1710	6863
1	1703	6864
1	1706	6865
1	1712	6866
1	1731	6867
1	1747	6868
1	1755	6869
1	1760	6870
1	1768	6871
1	1783	6872
1	1803	6873
1	1829	6874
1	1849	6875
1	1862	6876
1	1866	6877
1	1854	6878
1	1841	6879
1	1813	6880
1	1778	6881
1	1753	6882
1	1733	6883
1	1715	6884
1	1710	6885
1	1716	6886
1	1736	6887
1	1752	6888
1	1764	6889
1	1787	6890
1	1809	6891
1	1831	6892
1	1851	6893
1	1868	6894
1	1878	6895
1	1874	6896
1	1869	6897
1	1845	6898
1	1801	6899
1	1751	6900
1	1716	6901
1	1691	6902
1	1675	6903
1	1665	6904
1	1662	6905
1	1665	6906
1	1668	6907
1	1664	6908
1	1670	6909
1	1688	6910
1	1718	6911
1	1763	6912
1	1811	6913
1	1839	6914
1	1851	6915
1	1854	6916
1	1849	6917
1	1834	6918
1	1792	6919
1	1752	6920
1	1721	6921
1	1704	6922
1	1697	6923
1	1705	6924
1	1724	6925
1	1741	6926
1	1769	6927
1	1791	6928
1	1803	6929
1	1837	6930
1	1865	6931
1	1895	6932
1	1904	6933
1	1908	6934
1	1906	6935
1	1890	6936
1	1861	6937
1	1817	6938
1	1760	6939
1	1712	6940
1	1672	6941
1	1638	6942
1	1621	6943
1	1620	6944
1	1630	6945
1	1647	6946
1	1685	6947
1	1716	6948
1	1753	6949
1	1793	6950
1	1843	6951
1	1883	6952
1	1913	6953
1	1942	6954
1	1953	6955
1	1949	6956
1	1932	6957
1	1904	6958
1	1860	6959
1	1816	6960
1	1769	6961
1	1729	6962
1	1694	6963
1	1668	6964
1	1647	6965
1	1634	6966
1	1621	6967
1	1616	6968
1	1631	6969
1	1660	6970
1	1699	6971
1	1752	6972
1	1814	6973
1	1869	6974
1	1914	6975
1	1948	6976
1	1962	6977
1	1962	6978
1	1946	6979
1	1922	6980
1	1900	6981
1	1872	6982
1	1837	6983
1	1803	6984
1	1777	6985
1	1756	6986
1	1755	6987
1	1761	6988
1	1764	6989
1	1788	6990
1	1817	6991
1	1854	6992
1	1893	6993
1	1920	6994
1	1936	6995
1	1934	6996
1	1914	6997
1	1869	6998
1	1825	6999
1	1777	7000
1	1744	7001
1	1726	7002
1	1713	7003
1	1714	7004
1	1727	7005
1	1733	7006
1	1737	7007
1	1744	7008
1	1756	7009
1	1778	7010
1	1811	7011
1	1843	7012
1	1867	7013
1	1877	7014
1	1881	7015
1	1871	7016
1	1855	7017
1	1828	7018
1	1785	7019
1	1869	7040
1	1854	7041
1	1843	7042
1	1839	7043
1	1843	7044
1	1842	7045
1	1831	7046
1	1827	7047
1	1822	7048
1	1831	7049
1	1850	7050
1	1875	7051
1	1913	7052
1	1940	7053
1	1963	7054
1	1974	7055
1	1967	7056
1	1945	7057
1	1904	7058
1	1867	7059
1	1750	7020
1	1730	7021
1	1727	7022
1	1733	7023
1	1737	7024
1	1743	7025
1	1762	7026
1	1782	7027
1	1800	7028
1	1823	7029
1	1846	7030
1	1863	7031
1	1880	7032
1	1903	7033
1	1912	7034
1	1917	7035
1	1922	7036
1	1922	7037
1	1911	7038
1	1893	7039
1	1827	7060
1	1789	7061
1	1764	7062
1	1760	7063
1	1754	7064
1	1755	7065
1	1764	7066
1	1770	7067
1	1788	7068
1	1803	7069
1	1829	7070
1	1853	7071
1	1882	7072
1	1904	7073
1	1924	7074
1	1937	7075
1	1932	7076
1	1922	7077
1	1897	7078
1	1858	7079
1	1755	7100
1	1719	7101
1	1686	7102
1	1652	7103
1	1625	7104
1	1604	7105
1	1596	7106
1	1598	7107
1	1609	7108
1	1623	7109
1	1649	7110
1	1684	7111
1	1719	7112
1	1756	7113
1	1791	7114
1	1817	7115
1	1831	7116
1	1821	7117
1	1787	7118
1	1750	7119
1	1817	7080
1	1775	7081
1	1744	7082
1	1716	7083
1	1697	7084
1	1687	7085
1	1686	7086
1	1692	7087
1	1698	7088
1	1710	7089
1	1727	7090
1	1757	7091
1	1796	7092
1	1833	7093
1	1855	7094
1	1867	7095
1	1866	7096
1	1856	7097
1	1832	7098
1	1792	7099
1	1529	7140
1	1517	7141
1	1521	7142
1	1529	7143
1	1541	7144
1	1549	7145
1	1555	7146
1	1568	7147
1	1581	7148
1	1597	7149
1	1620	7150
1	1646	7151
1	1670	7152
1	1697	7153
1	1704	7154
1	1695	7155
1	1670	7156
1	1634	7157
1	1584	7158
1	1532	7159
1	1490	7160
1	1458	7161
1	1435	7162
1	1424	7163
1	1427	7164
1	1437	7165
1	1451	7166
1	1481	7167
1	1512	7168
1	1544	7169
1	1580	7170
1	1613	7171
1	1658	7172
1	1697	7173
1	1724	7174
1	1739	7175
1	1736	7176
1	1707	7177
1	1660	7178
1	1613	7179
1	1715	7120
1	1686	7121
1	1668	7122
1	1647	7123
1	1638	7124
1	1634	7125
1	1634	7126
1	1626	7127
1	1606	7128
1	1592	7129
1	1576	7130
1	1565	7131
1	1564	7132
1	1575	7133
1	1582	7134
1	1593	7135
1	1593	7136
1	1594	7137
1	1570	7138
1	1549	7139
1	1576	7180
1	1546	7181
1	1521	7182
1	1494	7183
1	1476	7184
1	1472	7185
1	1478	7186
1	1487	7187
1	1495	7188
1	1503	7189
1	1529	7190
1	1566	7191
1	1607	7192
1	1638	7193
1	1661	7194
1	1686	7195
1	1688	7196
1	1680	7197
1	1646	7198
1	1598	7199
1	1555	7200
1	1526	7201
1	1503	7202
1	1489	7203
1	1475	7204
1	1452	7205
1	1439	7206
1	1432	7207
1	1430	7208
1	1449	7209
1	1484	7210
1	1530	7211
1	1585	7212
1	1649	7213
1	1693	7214
1	1720	7215
1	1725	7216
1	1700	7217
1	1654	7218
1	1595	7219
1	1540	7220
1	1497	7221
1	1468	7222
1	1440	7223
1	1432	7224
1	1432	7225
1	1433	7226
1	1445	7227
1	1453	7228
1	1469	7229
1	1503	7230
1	1543	7231
1	1587	7232
1	1644	7233
1	1674	7234
1	1710	7235
1	1726	7236
1	1719	7237
1	1689	7238
1	1638	7239
1	1579	7240
1	1521	7241
1	1481	7242
1	1453	7243
1	1440	7244
1	1440	7245
1	1450	7246
1	1471	7247
1	1489	7248
1	1508	7249
1	1527	7250
1	1543	7251
1	1559	7252
1	1575	7253
1	1586	7254
1	1600	7255
1	1597	7256
1	1584	7257
1	1566	7258
1	1528	7259
1	1485	7260
1	1450	7261
1	1424	7262
1	1404	7263
1	1397	7264
1	1395	7265
1	1397	7266
1	1406	7267
1	1423	7268
1	1450	7269
1	1488	7270
1	1531	7271
1	1586	7272
1	1622	7273
1	1644	7274
1	1652	7275
1	1652	7276
1	1643	7277
1	1620	7278
1	1586	7279
1	1498	7300
1	1480	7301
1	1476	7302
1	1474	7303
1	1467	7304
1	1458	7305
1	1450	7306
1	1452	7307
1	1471	7308
1	1488	7309
1	1511	7310
1	1544	7311
1	1581	7312
1	1607	7313
1	1629	7314
1	1643	7315
1	1641	7316
1	1636	7317
1	1613	7318
1	1580	7319
1	1553	7280
1	1529	7281
1	1521	7282
1	1517	7283
1	1517	7284
1	1519	7285
1	1527	7286
1	1533	7287
1	1525	7288
1	1517	7289
1	1525	7290
1	1539	7291
1	1553	7292
1	1561	7293
1	1574	7294
1	1582	7295
1	1585	7296
1	1581	7297
1	1556	7298
1	1527	7299
1	1541	7320
1	1504	7321
1	1479	7322
1	1455	7323
1	1437	7324
1	1429	7325
1	1433	7326
1	1440	7327
1	1449	7328
1	1465	7329
1	1499	7330
1	1542	7331
1	1589	7332
1	1629	7333
1	1656	7334
1	1664	7335
1	1667	7336
1	1674	7337
1	1663	7338
1	1638	7339
1	1609	7340
1	1582	7341
1	1557	7342
1	1535	7343
1	1521	7344
1	1508	7345
1	1503	7346
1	1503	7347
1	1503	7348
1	1510	7349
1	1529	7350
1	1553	7351
1	1583	7352
1	1618	7353
1	1647	7354
1	1660	7355
1	1656	7356
1	1631	7357
1	1570	7358
1	1503	7359
1	1512	7380
1	1485	7381
1	1465	7382
1	1449	7383
1	1440	7384
1	1443	7385
1	1450	7386
1	1455	7387
1	1467	7388
1	1480	7389
1	1495	7390
1	1524	7391
1	1559	7392
1	1592	7393
1	1620	7394
1	1635	7395
1	1639	7396
1	1633	7397
1	1603	7398
1	1567	7399
1	1445	7360
1	1402	7361
1	1371	7362
1	1357	7363
1	1351	7364
1	1364	7365
1	1382	7366
1	1411	7367
1	1437	7368
1	1466	7369
1	1500	7370
1	1539	7371
1	1585	7372
1	1621	7373
1	1648	7374
1	1662	7375
1	1659	7376
1	1638	7377
1	1596	7378
1	1552	7379
1	1529	7400
1	1503	7401
1	1484	7402
1	1467	7403
1	1459	7404
1	1463	7405
1	1476	7406
1	1494	7407
1	1513	7408
1	1523	7409
1	1542	7410
1	1568	7411
1	1598	7412
1	1634	7413
1	1667	7414
1	1683	7415
1	1688	7416
1	1686	7417
1	1664	7418
1	1634	7419
1	1600	7420
1	1572	7421
1	1555	7422
1	1539	7423
1	1521	7424
1	1506	7425
1	1495	7426
1	1485	7427
1	1485	7428
1	1484	7429
1	1503	7430
1	1528	7431
1	1557	7432
1	1587	7433
1	1609	7434
1	1623	7435
1	1625	7436
1	1621	7437
1	1607	7438
1	1575	7439
1	1546	7440
1	1534	7441
1	1544	7442
1	1555	7443
1	1571	7444
1	1591	7445
1	1619	7446
1	1644	7447
1	1658	7448
1	1660	7449
1	1663	7450
1	1670	7451
1	1674	7452
1	1682	7453
1	1683	7454
1	1686	7455
1	1688	7456
1	1677	7457
1	1645	7458
1	1600	7459
1	1481	7480
1	1443	7481
1	1424	7482
1	1413	7483
1	1420	7484
1	1438	7485
1	1465	7486
1	1499	7487
1	1534	7488
1	1572	7489
1	1606	7490
1	1628	7491
1	1636	7492
1	1638	7493
1	1641	7494
1	1638	7495
1	1629	7496
1	1616	7497
1	1590	7498
1	1557	7499
1	1558	7460
1	1521	7461
1	1492	7462
1	1476	7463
1	1476	7464
1	1489	7465
1	1503	7466
1	1519	7467
1	1521	7468
1	1526	7469
1	1543	7470
1	1569	7471
1	1599	7472
1	1628	7473
1	1646	7474
1	1652	7475
1	1646	7476
1	1633	7477
1	1589	7478
1	1532	7479
1	1532	7500
1	1507	7501
1	1490	7502
1	1476	7503
1	1471	7504
1	1454	7505
1	1440	7506
1	1428	7507
1	1424	7508
1	1436	7509
1	1463	7510
1	1503	7511
1	1544	7512
1	1592	7513
1	1625	7514
1	1639	7515
1	1643	7516
1	1634	7517
1	1607	7518
1	1566	7519
1	1524	7520
1	1484	7521
1	1453	7522
1	1425	7523
1	1409	7524
1	1399	7525
1	1408	7526
1	1433	7527
1	1453	7528
1	1468	7529
1	1499	7530
1	1533	7531
1	1568	7532
1	1595	7533
1	1607	7534
1	1608	7535
1	1597	7536
1	1571	7537
1	1531	7538
1	1482	7539
1	1442	7540
1	1413	7541
1	1391	7542
1	1373	7543
1	1369	7544
1	1371	7545
1	1375	7546
1	1397	7547
1	1410	7548
1	1427	7549
1	1453	7550
1	1489	7551
1	1528	7552
1	1557	7553
1	1585	7554
1	1607	7555
1	1624	7556
1	1629	7557
1	1630	7558
1	1609	7559
1	1587	7560
1	1566	7561
1	1555	7562
1	1559	7563
1	1581	7564
1	1607	7565
1	1639	7566
1	1680	7567
1	1714	7568
1	1764	7569
1	1832	7570
1	1906	7571
1	1987	7572
1	2057	7573
1	2107	7574
1	2136	7575
1	2137	7576
1	2119	7577
1	2086	7578
1	2039	7579
1	1990	7580
1	1938	7581
1	1888	7582
1	1821	7583
1	1754	7584
1	1692	7585
1	1638	7586
1	1593	7587
1	1544	7588
1	1493	7589
1	1454	7590
1	1428	7591
1	1409	7592
1	1379	7593
1	1346	7594
1	1311	7595
1	1279	7596
1	1245	7597
1	1198	7598
1	1149	7599
1	1104	7600
1	1071	7601
1	1057	7602
1	1054	7603
1	1069	7604
1	1099	7605
1	1136	7606
1	1168	7607
1	1193	7608
1	1216	7609
1	1246	7610
1	1293	7611
1	1346	7612
1	1397	7613
1	1430	7614
1	1453	7615
1	1472	7616
1	1476	7617
1	1476	7618
1	1459	7619
1	1446	7620
1	1436	7621
1	1424	7622
1	1422	7623
1	1431	7624
1	1448	7625
1	1469	7626
1	1490	7627
1	1507	7628
1	1536	7629
1	1571	7630
1	1612	7631
1	1652	7632
1	1682	7633
1	1691	7634
1	1686	7635
1	1660	7636
1	1629	7637
1	1587	7638
1	1539	7639
1	1496	7640
1	1456	7641
1	1426	7642
1	1400	7643
1	1396	7644
1	1400	7645
1	1417	7646
1	1437	7647
1	1466	7648
1	1492	7649
1	1530	7650
1	1579	7651
1	1621	7652
1	1656	7653
1	1683	7654
1	1702	7655
1	1708	7656
1	1693	7657
1	1659	7658
1	1625	7659
1	1593	7660
1	1562	7661
1	1538	7662
1	1526	7663
1	1518	7664
1	1523	7665
1	1539	7666
1	1557	7667
1	1576	7668
1	1584	7669
1	1595	7670
1	1607	7671
1	1618	7672
1	1617	7673
1	1611	7674
1	1607	7675
1	1602	7676
1	1594	7677
1	1580	7678
1	1557	7679
1	1543	7680
1	1523	7681
1	1505	7682
1	1495	7683
1	1495	7684
1	1503	7685
1	1527	7686
1	1544	7687
1	1570	7688
1	1600	7689
1	1634	7690
1	1670	7691
1	1708	7692
1	1736	7693
1	1751	7694
1	1753	7695
1	1742	7696
1	1715	7697
1	1665	7698
1	1602	7699
1	1528	7700
1	1462	7701
1	1418	7702
1	1395	7703
1	1401	7704
1	1424	7705
1	1456	7706
1	1499	7707
1	1544	7708
1	1585	7709
1	1625	7710
1	1660	7711
1	1686	7712
1	1700	7713
1	1700	7714
1	1693	7715
1	1674	7716
1	1647	7717
1	1605	7718
1	1560	7719
1	1528	7720
1	1501	7721
1	1494	7722
1	1495	7723
1	1501	7724
1	1507	7725
1	1520	7726
1	1533	7727
1	1555	7728
1	1577	7729
1	1606	7730
1	1629	7731
1	1647	7732
1	1660	7733
1	1661	7734
1	1656	7735
1	1646	7736
1	1623	7737
1	1595	7738
1	1565	7739
1	1544	7740
1	1527	7741
1	1526	7742
1	1530	7743
1	1540	7744
1	1552	7745
1	1557	7746
1	1569	7747
1	1579	7748
1	1600	7749
1	1633	7750
1	1672	7751
1	1712	7752
1	1751	7753
1	1767	7754
1	1775	7755
1	1770	7756
1	1746	7757
1	1710	7758
1	1665	7759
1	1629	7760
1	1594	7761
1	1570	7762
1	1552	7763
1	1542	7764
1	1540	7765
1	1546	7766
1	1561	7767
1	1568	7768
1	1577	7769
1	1592	7770
1	1616	7771
1	1647	7772
1	1674	7773
1	1693	7774
1	1708	7775
1	1712	7776
1	1711	7777
1	1697	7778
1	1686	7779
1	1671	7780
1	1651	7781
1	1634	7782
1	1619	7783
1	1607	7784
1	1594	7785
1	1587	7786
1	1585	7787
1	1589	7788
1	1607	7789
1	1633	7790
1	1669	7791
1	1714	7792
1	1747	7793
1	1764	7794
1	1769	7795
1	1764	7796
1	1742	7797
1	1700	7798
1	1655	7799
1	1612	7800
1	1580	7801
1	1553	7802
1	1532	7803
1	1525	7804
1	1529	7805
1	1542	7806
1	1561	7807
1	1582	7808
1	1610	7809
1	1645	7810
1	1682	7811
1	1718	7812
1	1755	7813
1	1782	7814
1	1803	7815
1	1816	7816
1	1812	7817
1	1788	7818
1	1759	7819
1	1734	7820
1	1708	7821
1	1688	7822
1	1665	7823
1	1652	7824
1	1639	7825
1	1633	7826
1	1634	7827
1	1638	7828
1	1651	7829
1	1688	7830
1	1728	7831
1	1764	7832
1	1800	7833
1	1827	7834
1	1843	7835
1	1843	7836
1	1818	7837
1	1783	7838
1	1738	7839
1	1700	7840
1	1665	7841
1	1643	7842
1	1625	7843
1	1622	7844
1	1633	7845
1	1656	7846
1	1674	7847
1	1693	7848
1	1711	7849
1	1733	7850
1	1760	7851
1	1799	7852
1	1831	7853
1	1856	7854
1	1877	7855
1	1877	7856
1	1858	7857
1	1827	7858
1	1769	7859
1	1721	7860
1	1683	7861
1	1659	7862
1	1646	7863
1	1651	7864
1	1661	7865
1	1665	7866
1	1672	7867
1	1663	7868
1	1660	7869
1	1661	7870
1	1671	7871
1	1689	7872
1	1712	7873
1	1731	7874
1	1738	7875
1	1731	7876
1	1716	7877
1	1698	7878
1	1681	7879
1	1665	7880
1	1651	7881
1	1634	7882
1	1612	7883
1	1594	7884
1	1583	7885
1	1581	7886
1	1592	7887
1	1599	7888
1	1610	7889
1	1634	7890
1	1661	7891
1	1694	7892
1	1725	7893
1	1742	7894
1	1751	7895
1	1742	7896
1	1712	7897
1	1661	7898
1	1611	7899
1	1555	7900
1	1505	7901
1	1473	7902
1	1438	7903
1	1413	7904
1	1401	7905
1	1398	7906
1	1397	7907
1	1407	7908
1	1431	7909
1	1463	7910
1	1497	7911
1	1530	7912
1	1557	7913
1	1584	7914
1	1598	7915
1	1597	7916
1	1581	7917
1	1557	7918
1	1527	7919
1	1497	7920
1	1476	7921
1	1466	7922
1	1471	7923
1	1482	7924
1	1503	7925
1	1526	7926
1	1544	7927
1	1553	7928
1	1567	7929
1	1584	7930
1	1607	7931
1	1631	7932
1	1643	7933
1	1642	7934
1	1637	7935
1	1628	7936
1	1607	7937
1	1581	7938
1	1552	7939
1	1517	7940
1	1482	7941
1	1450	7942
1	1424	7943
1	1414	7944
1	1420	7945
1	1435	7946
1	1455	7947
1	1482	7948
1	1503	7949
1	1523	7950
1	1554	7951
1	1583	7952
1	1607	7953
1	1616	7954
1	1615	7955
1	1597	7956
1	1561	7957
1	1508	7958
1	1460	7959
1	1422	7960
1	1395	7961
1	1379	7962
1	1383	7963
1	1391	7964
1	1400	7965
1	1418	7966
1	1436	7967
1	1456	7968
1	1488	7969
1	1521	7970
1	1557	7971
1	1586	7972
1	1594	7973
1	1605	7974
1	1606	7975
1	1594	7976
1	1581	7977
1	1556	7978
1	1537	7979
1	1523	7980
1	1511	7981
1	1508	7982
1	1508	7983
1	1517	7984
1	1529	7985
1	1545	7986
1	1557	7987
1	1569	7988
1	1581	7989
1	1593	7990
1	1603	7991
1	1616	7992
1	1622	7993
1	1629	7994
1	1621	7995
1	1607	7996
1	1581	7997
1	1553	7998
1	1529	7999
1	1512	8000
1	1503	8000
1	1500	8002
1	1497	8003
1	1503	8004
1	1503	8005
1	1504	8006
1	1506	8007
1	1515	8008
1	1523	8009
1	1541	8010
1	1570	8011
1	1602	8012
1	1632	8013
1	1650	8013
1	1656	8015
1	1647	8016
1	1629	8016
1	1590	8018
1	1543	8019
1	1499	8020
1	1461	8021
1	1440	8022
1	1427	8023
1	1424	8024
1	1435	8025
1	1448	8026
1	1466	8027
1	1485	8028
1	1508	8029
1	1546	8029
1	1592	8031
1	1628	8032
1	1646	8032
1	1652	8034
1	1645	8035
1	1624	8036
1	1593	8037
1	1556	8038
1	1526	8039
1	1503	8040
1	1491	8041
1	1485	8042
1	1484	8043
1	1490	8044
1	1505	8045
1	1528	8045
1	1544	8047
1	1553	8048
1	1566	8048
1	1585	8050
1	1607	8051
1	1633	8052
1	1661	8053
1	1685	8054
1	1699	8055
1	1706	8056
1	1694	8057
1	1660	8058
1	1618	8059
1	1580	8060
1	1536	8061
1	1497	8061
1	1467	8063
1	1453	8064
1	1446	8064
1	1449	8066
1	1463	8067
1	1489	8068
1	1514	8069
1	1542	8070
1	1577	8071
1	1607	8072
1	1625	8073
1	1631	8074
1	1626	8074
1	1608	8076
1	1587	8077
1	1555	8077
1	1529	8079
1	1505	8080
1	1490	8080
1	1481	8082
1	1476	8083
1	1479	8084
1	1494	8085
1	1513	8086
1	1539	8087
1	1560	8088
1	1592	8089
1	1629	8090
1	1660	8090
1	1686	8092
1	1686	8093
1	1688	8093
1	1686	8095
1	1674	8096
1	1647	8096
1	1600	8098
1	1555	8099
1	1525	8100
1	1504	8101
1	1498	8102
1	1495	8103
1	1502	8104
1	1512	8105
1	1528	8106
1	1549	8106
1	1570	8108
1	1602	8109
1	1646	8109
1	1686	8111
1	1730	8112
1	1753	8113
1	1764	8114
1	1760	8115
1	1744	8116
1	1724	8117
1	1691	8118
1	1652	8119
1	1609	8120
1	1567	8121
1	1527	8122
1	1490	8122
1	1469	8124
1	1459	8125
1	1454	8125
1	1467	8127
1	1479	8128
1	1495	8129
1	1516	8130
1	1545	8131
1	1573	8132
1	1595	8133
1	1623	8134
1	1636	8135
1	1639	8136
1	1625	8137
1	1596	8138
1	1563	8138
1	1542	8140
1	1521	8141
1	1510	8141
1	1503	8143
1	1494	8144
1	1494	8145
1	1494	8146
1	1504	8147
1	1515	8148
1	1537	8149
1	1564	8150
1	1597	8151
1	1626	8152
1	1646	8153
1	1654	8154
1	1657	8154
1	1645	8156
1	1634	8157
1	1605	8157
1	1581	8159
1	1559	8160
1	1542	8161
1	1528	8162
1	1512	8163
1	1495	8164
1	1485	8165
1	1476	8166
1	1463	8167
1	1451	8168
1	1468	8169
1	1503	8170
1	1554	8170
1	1603	8172
1	1643	8173
1	1662	8173
1	1665	8175
1	1652	8176
1	1623	8177
1	1582	8178
1	1542	8179
1	1515	8180
1	1503	8181
1	1500	8182
1	1494	8183
1	1497	8184
1	1503	8185
1	1517	8186
1	1526	8186
1	1529	8188
1	1554	8189
1	1593	8189
1	1644	8191
1	1688	8192
1	1717	8193
1	1737	8194
1	1737	8195
1	1714	8196
1	1681	8197
1	1634	8198
1	1588	8199
1	1550	8200
1	1528	8201
1	1516	8202
1	1502	8203
1	1493	8204
1	1494	8205
1	1503	8206
1	1517	8207
1	1530	8208
1	1554	8209
1	1576	8210
1	1595	8211
1	1607	8212
1	1608	8213
1	1605	8214
1	1597	8215
1	1582	8216
1	1557	8217
1	1539	8218
1	1518	8219
1	1489	8240
1	1474	8241
1	1467	8242
1	1463	8243
1	1471	8244
1	1488	8245
1	1507	8246
1	1531	8247
1	1559	8248
1	1603	8249
1	1634	8250
1	1652	8251
1	1667	8252
1	1680	8253
1	1692	8254
1	1700	8255
1	1699	8256
1	1690	8257
1	1660	8258
1	1625	8259
1	1507	8220
1	1494	8221
1	1489	8222
1	1490	8223
1	1503	8224
1	1518	8225
1	1535	8226
1	1554	8227
1	1555	8228
1	1564	8229
1	1579	8230
1	1594	8231
1	1616	8232
1	1631	8233
1	1634	8234
1	1629	8235
1	1609	8236
1	1582	8237
1	1546	8238
1	1514	8239
1	1593	8260
1	1568	8261
1	1548	8262
1	1534	8263
1	1518	8264
1	1508	8265
1	1511	8266
1	1524	8267
1	1539	8268
1	1553	8269
1	1569	8270
1	1593	8271
1	1620	8272
1	1634	8273
1	1651	8274
1	1652	8275
1	1646	8276
1	1635	8277
1	1611	8278
1	1584	8279
1	1533	8300
1	1517	8301
1	1508	8302
1	1505	8303
1	1514	8304
1	1525	8305
1	1541	8306
1	1566	8307
1	1601	8308
1	1633	8309
1	1667	8310
1	1708	8311
1	1740	8312
1	1760	8313
1	1764	8314
1	1755	8315
1	1739	8316
1	1711	8317
1	1661	8318
1	1616	8319
1	1555	8280
1	1535	8281
1	1525	8282
1	1521	8283
1	1528	8284
1	1542	8285
1	1553	8286
1	1556	8287
1	1568	8288
1	1583	8289
1	1605	8290
1	1631	8291
1	1659	8292
1	1670	8293
1	1671	8294
1	1660	8295
1	1647	8296
1	1625	8297
1	1593	8298
1	1557	8299
1	1665	8340
1	1639	8341
1	1607	8342
1	1581	8343
1	1567	8344
1	1567	8345
1	1576	8346
1	1592	8347
1	1603	8348
1	1622	8349
1	1647	8350
1	1679	8351
1	1704	8352
1	1728	8353
1	1734	8354
1	1729	8355
1	1713	8356
1	1688	8357
1	1652	8358
1	1620	8359
1	1579	8320
1	1543	8321
1	1528	8322
1	1526	8323
1	1541	8324
1	1569	8325
1	1607	8326
1	1651	8327
1	1695	8328
1	1737	8329
1	1773	8330
1	1809	8331
1	1836	8332
1	1851	8333
1	1849	8334
1	1836	8335
1	1808	8336
1	1772	8337
1	1737	8338
1	1704	8339
1	1530	8400
1	1516	8401
1	1508	8402
1	1506	8403
1	1514	8404
1	1529	8405
1	1544	8406
1	1560	8407
1	1576	8408
1	1602	8409
1	1634	8410
1	1660	8411
1	1685	8412
1	1700	8413
1	1701	8414
1	1685	8415
1	1661	8416
1	1634	8417
1	1601	8418
1	1566	8419
1	1596	8360
1	1580	8361
1	1565	8362
1	1543	8363
1	1532	8364
1	1526	8365
1	1526	8366
1	1545	8367
1	1569	8368
1	1596	8369
1	1631	8370
1	1665	8371
1	1693	8372
1	1711	8373
1	1721	8374
1	1718	8375
1	1702	8376
1	1668	8377
1	1619	8378
1	1584	8379
1	1561	8380
1	1555	8381
1	1557	8382
1	1566	8383
1	1580	8384
1	1598	8385
1	1616	8386
1	1634	8387
1	1652	8388
1	1674	8389
1	1706	8390
1	1738	8391
1	1754	8392
1	1746	8393
1	1735	8394
1	1715	8395
1	1686	8396
1	1647	8397
1	1597	8398
1	1556	8399
1	1536	8420
1	1515	8421
1	1505	8422
1	1503	8423
1	1517	8424
1	1540	8425
1	1569	8426
1	1607	8427
1	1628	8428
1	1638	8429
1	1660	8430
1	1669	8431
1	1682	8432
1	1682	8433
1	1674	8434
1	1670	8435
1	1657	8436
1	1634	8437
1	1607	8438
1	1580	8439
1	1556	8440
1	1542	8441
1	1531	8442
1	1526	8443
1	1525	8444
1	1527	8445
1	1540	8446
1	1555	8447
1	1579	8448
1	1616	8449
1	1673	8450
1	1739	8451
1	1822	8452
1	1894	8453
1	1959	8454
1	2012	8455
1	2050	8456
1	2065	8457
1	2066	8458
1	2051	8459
1	2030	8460
1	2024	8461
1	2026	8462
1	2050	8463
1	2079	8464
1	2102	8465
1	2112	8466
1	2112	8467
1	2089	8468
1	2075	8469
1	2065	8470
1	2053	8471
1	2047	8472
1	2017	8473
1	1969	8474
1	1899	8475
1	1815	8476
1	1714	8477
1	1613	8478
1	1521	8479
1	1429	8480
1	1332	8481
1	1243	8482
1	1173	8483
1	1134	8484
1	1121	8485
1	1128	8486
1	1153	8487
1	1188	8488
1	1233	8489
1	1283	8490
1	1341	8491
1	1398	8492
1	1439	8493
1	1475	8494
1	1500	8495
1	1515	8496
1	1528	8497
1	1523	8498
1	1511	8499
1	1494	8500
1	1477	8501
1	1476	8502
1	1481	8503
1	1492	8504
1	1517	8505
1	1544	8506
1	1569	8507
1	1591	8508
1	1616	8509
1	1649	8510
1	1685	8511
1	1713	8512
1	1730	8513
1	1738	8514
1	1733	8515
1	1712	8516
1	1683	8517
1	1647	8518
1	1611	8519
1	1679	8540
1	1660	8541
1	1647	8542
1	1643	8543
1	1639	8544
1	1634	8545
1	1631	8546
1	1634	8547
1	1649	8548
1	1670	8549
1	1698	8550
1	1731	8551
1	1761	8552
1	1781	8553
1	1791	8554
1	1786	8555
1	1764	8556
1	1729	8557
1	1677	8558
1	1631	8559
1	1582	8520
1	1566	8521
1	1558	8522
1	1557	8523
1	1569	8524
1	1581	8525
1	1593	8526
1	1595	8527
1	1599	8528
1	1620	8529
1	1650	8530
1	1688	8531
1	1719	8532
1	1738	8533
1	1747	8534
1	1754	8535
1	1750	8536
1	1737	8537
1	1716	8538
1	1699	8539
1	1586	8560
1	1544	8561
1	1513	8562
1	1502	8563
1	1503	8564
1	1516	8565
1	1549	8566
1	1589	8567
1	1632	8568
1	1679	8569
1	1734	8570
1	1778	8571
1	1814	8572
1	1827	8573
1	1841	8574
1	1841	8575
1	1826	8576
1	1801	8577
1	1759	8578
1	1713	8579
1	1679	8580
1	1652	8581
1	1633	8582
1	1618	8583
1	1610	8584
1	1605	8585
1	1594	8586
1	1589	8587
1	1600	8588
1	1622	8589
1	1648	8590
1	1677	8591
1	1711	8592
1	1738	8593
1	1762	8594
1	1777	8595
1	1780	8596
1	1769	8597
1	1751	8598
1	1742	8599
1	1734	8600
1	1713	8601
1	1687	8602
1	1660	8603
1	1634	8604
1	1607	8605
1	1592	8606
1	1590	8607
1	1607	8608
1	1634	8609
1	1670	8610
1	1714	8611
1	1764	8612
1	1812	8613
1	1841	8614
1	1847	8615
1	1841	8616
1	1813	8617
1	1755	8618
1	1707	8619
1	1667	8620
1	1634	8621
1	1613	8622
1	1598	8623
1	1594	8624
1	1595	8625
1	1606	8626
1	1621	8627
1	1638	8628
1	1656	8629
1	1688	8630
1	1728	8631
1	1765	8632
1	1791	8633
1	1815	8634
1	1818	8635
1	1817	8636
1	1791	8637
1	1754	8638
1	1728	8639
1	1699	8640
1	1686	8641
1	1664	8642
1	1649	8643
1	1634	8644
1	1629	8645
1	1628	8646
1	1634	8647
1	1647	8648
1	1673	8649
1	1712	8650
1	1757	8651
1	1813	8652
1	1843	8653
1	1856	8654
1	1856	8655
1	1850	8656
1	1835	8657
1	1816	8658
1	1796	8659
1	1791	8660
1	1791	8661
1	1788	8662
1	1777	8663
1	1775	8664
1	1778	8665
1	1788	8666
1	1807	8667
1	1815	8668
1	1817	8669
1	1818	8670
1	1824	8671
1	1828	8672
1	1828	8673
1	1818	8674
1	1808	8675
1	1793	8676
1	1782	8677
1	1757	8678
1	1744	8679
1	1763	8700
1	1741	8701
1	1738	8702
1	1746	8703
1	1761	8704
1	1778	8705
1	1793	8706
1	1809	8707
1	1816	8708
1	1825	8709
1	1834	8710
1	1844	8711
1	1857	8712
1	1874	8713
1	1877	8714
1	1869	8715
1	1856	8716
1	1830	8717
1	1791	8718
1	1764	8719
1	1737	8680
1	1724	8681
1	1724	8682
1	1719	8683
1	1716	8684
1	1716	8685
1	1721	8686
1	1738	8687
1	1756	8688
1	1786	8689
1	1818	8690
1	1859	8691
1	1896	8692
1	1922	8693
1	1931	8694
1	1921	8695
1	1893	8696
1	1864	8697
1	1829	8698
1	1791	8699
1	1739	8740
1	1707	8741
1	1685	8742
1	1686	8743
1	1701	8744
1	1734	8745
1	1760	8746
1	1790	8747
1	1816	8748
1	1841	8749
1	1865	8750
1	1895	8751
1	1916	8752
1	1917	8753
1	1910	8754
1	1899	8755
1	1879	8756
1	1851	8757
1	1818	8758
1	1780	8759
1	1744	8720
1	1740	8721
1	1749	8722
1	1752	8723
1	1764	8724
1	1787	8725
1	1810	8726
1	1838	8727
1	1857	8728
1	1869	8729
1	1895	8730
1	1908	8731
1	1935	8732
1	1950	8733
1	1952	8734
1	1946	8735
1	1923	8736
1	1891	8737
1	1842	8738
1	1787	8739
1	1757	8760
1	1744	8761
1	1742	8762
1	1747	8763
1	1750	8764
1	1747	8765
1	1742	8766
1	1736	8767
1	1721	8768
1	1727	8769
1	1747	8770
1	1773	8771
1	1811	8772
1	1833	8773
1	1848	8774
1	1849	8775
1	1847	8776
1	1834	8777
1	1802	8778
1	1772	8779
1	1746	8780
1	1726	8781
1	1710	8782
1	1687	8783
1	1673	8784
1	1670	8785
1	1672	8786
1	1686	8787
1	1703	8788
1	1728	8789
1	1751	8790
1	1783	8791
1	1808	8792
1	1818	8793
1	1821	8794
1	1814	8795
1	1788	8796
1	1751	8797
1	1700	8798
1	1661	8799
1	1629	8800
1	1597	8801
1	1576	8802
1	1555	8803
1	1544	8804
1	1536	8805
1	1538	8806
1	1553	8807
1	1581	8808
1	1618	8809
1	1660	8810
1	1702	8811
1	1746	8812
1	1783	8813
1	1814	8814
1	1819	8815
1	1802	8816
1	1767	8817
1	1729	8818
1	1686	8819
1	1646	8820
1	1611	8821
1	1582	8822
1	1561	8823
1	1548	8824
1	1542	8825
1	1540	8826
1	1541	8827
1	1548	8828
1	1581	8829
1	1622	8830
1	1655	8831
1	1674	8832
1	1679	8833
1	1684	8834
1	1669	8835
1	1660	8836
1	1642	8837
1	1620	8838
1	1604	8839
1	1607	8840
1	1621	8841
1	1638	8842
1	1652	8843
1	1667	8844
1	1682	8845
1	1687	8846
1	1706	8847
1	1731	8848
1	1749	8849
1	1765	8850
1	1778	8851
1	1783	8852
1	1785	8853
1	1772	8854
1	1751	8855
1	1718	8856
1	1681	8857
1	1634	8858
1	1607	8859
1	1592	8860
1	1585	8861
1	1589	8862
1	1600	8863
1	1606	8864
1	1607	8865
1	1607	8866
1	1609	8867
1	1611	8868
1	1623	8869
1	1651	8870
1	1693	8871
1	1736	8872
1	1751	8873
1	1755	8874
1	1741	8875
1	1711	8876
1	1675	8877
1	1625	8878
1	1581	8879
1	1600	8900
1	1557	8901
1	1529	8902
1	1503	8903
1	1494	8904
1	1502	8905
1	1517	8906
1	1548	8907
1	1579	8908
1	1616	8909
1	1660	8910
1	1706	8911
1	1750	8912
1	1782	8913
1	1795	8914
1	1796	8915
1	1790	8916
1	1769	8917
1	1734	8918
1	1705	8919
1	1555	8880
1	1544	8881
1	1542	8882
1	1554	8883
1	1571	8884
1	1592	8885
1	1607	8886
1	1621	8887
1	1629	8888
1	1643	8889
1	1670	8890
1	1705	8891
1	1742	8892
1	1764	8893
1	1775	8894
1	1774	8895
1	1753	8896
1	1715	8897
1	1675	8898
1	1638	8899
1	1678	8920
1	1654	8921
1	1641	8922
1	1631	8923
1	1621	8924
1	1620	8925
1	1625	8926
1	1634	8927
1	1647	8928
1	1660	8929
1	1685	8930
1	1706	8931
1	1724	8932
1	1737	8933
1	1747	8934
1	1750	8935
1	1739	8936
1	1718	8937
1	1679	8938
1	1648	8939
1	1618	8940
1	1593	8941
1	1576	8942
1	1567	8943
1	1573	8944
1	1585	8945
1	1607	8946
1	1635	8947
1	1665	8948
1	1710	8949
1	1751	8950
1	1775	8951
1	1789	8952
1	1811	8953
1	1819	8954
1	1817	8955
1	1795	8956
1	1764	8957
1	1726	8958
1	1685	8959
1	1645	8960
1	1616	8961
1	1591	8962
1	1573	8963
1	1572	8964
1	1580	8965
1	1584	8966
1	1597	8967
1	1607	8968
1	1625	8969
1	1655	8970
1	1689	8971
1	1718	8972
1	1736	8973
1	1739	8974
1	1739	8975
1	1732	8976
1	1714	8977
1	1687	8978
1	1667	8979
1	1652	8980
1	1634	8981
1	1630	8982
1	1613	8983
1	1603	8984
1	1606	8985
1	1612	8986
1	1621	8987
1	1638	8988
1	1661	8989
1	1688	8990
1	1712	8991
1	1729	8992
1	1737	8993
1	1739	8994
1	1738	8995
1	1715	8996
1	1687	8997
1	1643	8998
1	1594	8999
1	1544	9000
1	1504	9001
1	1481	9002
1	1481	9003
1	1503	9004
1	1536	9005
1	1581	9006
1	1628	9007
1	1661	9008
1	1698	9009
1	1733	9010
1	1761	9011
1	1780	9012
1	1795	9013
1	1794	9014
1	1779	9015
1	1746	9016
1	1699	9017
1	1651	9018
1	1607	9019
1	1562	9020
1	1526	9021
1	1503	9022
1	1491	9023
1	1503	9024
1	1529	9025
1	1562	9026
1	1607	9027
1	1656	9028
1	1697	9029
1	1737	9030
1	1776	9031
1	1803	9032
1	1819	9033
1	1816	9034
1	1796	9035
1	1777	9036
1	1742	9037
1	1697	9038
1	1647	9039
1	1604	9040
1	1571	9041
1	1546	9042
1	1537	9043
1	1542	9044
1	1549	9045
1	1566	9046
1	1581	9047
1	1607	9048
1	1634	9049
1	1671	9050
1	1711	9051
1	1744	9052
1	1759	9053
1	1772	9054
1	1773	9055
1	1765	9056
1	1744	9057
1	1723	9058
1	1700	9059
1	1682	9060
1	1662	9061
1	1644	9062
1	1628	9063
1	1625	9064
1	1623	9065
1	1625	9066
1	1638	9067
1	1659	9068
1	1683	9069
1	1718	9070
1	1742	9071
1	1763	9072
1	1764	9073
1	1752	9074
1	1724	9075
1	1683	9076
1	1636	9077
1	1590	9078
1	1555	9079
1	1534	9080
1	1525	9081
1	1522	9082
1	1521	9083
1	1541	9084
1	1574	9085
1	1611	9086
1	1647	9087
1	1680	9088
1	1710	9089
1	1734	9090
1	1755	9091
1	1767	9092
1	1769	9093
1	1760	9094
1	1743	9095
1	1719	9096
1	1683	9097
1	1634	9098
1	1597	9099
1	1569	9100
1	1548	9101
1	1547	9102
1	1548	9103
1	1555	9104
1	1567	9105
1	1585	9106
1	1607	9107
1	1638	9108
1	1679	9109
1	1720	9110
1	1757	9111
1	1782	9112
1	1786	9113
1	1786	9114
1	1770	9115
1	1752	9116
1	1731	9117
1	1713	9118
1	1686	9119
1	1649	9120
1	1615	9121
1	1589	9122
1	1572	9123
1	1557	9124
1	1556	9125
1	1564	9126
1	1581	9127
1	1604	9128
1	1634	9129
1	1665	9130
1	1687	9131
1	1701	9132
1	1705	9133
1	1710	9134
1	1700	9135
1	1694	9136
1	1683	9137
1	1670	9138
1	1665	9139
1	1665	9140
1	1665	9141
1	1665	9142
1	1662	9143
1	1669	9144
1	1677	9145
1	1684	9146
1	1690	9147
1	1711	9148
1	1738	9149
1	1770	9150
1	1801	9151
1	1830	9152
1	1843	9153
1	1841	9154
1	1819	9155
1	1790	9156
1	1750	9157
1	1711	9158
1	1680	9159
1	1661	9160
1	1647	9161
1	1635	9162
1	1634	9163
1	1629	9164
1	1628	9165
1	1631	9166
1	1634	9167
1	1651	9168
1	1682	9169
1	1713	9170
1	1751	9171
1	1783	9172
1	1812	9173
1	1829	9174
1	1832	9175
1	1817	9176
1	1792	9177
1	1777	9178
1	1757	9179
1	1738	9180
1	1721	9181
1	1711	9182
1	1710	9183
1	1710	9184
1	1700	9185
1	1692	9186
1	1692	9187
1	1704	9188
1	1719	9189
1	1737	9190
1	1751	9191
1	1775	9192
1	1791	9193
1	1803	9194
1	1808	9195
1	1799	9196
1	1783	9197
1	1760	9198
1	1739	9199
1	1720	9200
1	1710	9201
1	1708	9202
1	1702	9203
1	1703	9204
1	1712	9205
1	1721	9206
1	1739	9207
1	1769	9208
1	1795	9209
1	1829	9210
1	1854	9211
1	1868	9212
1	1870	9213
1	1868	9214
1	1857	9215
1	1832	9216
1	1785	9217
1	1728	9218
1	1681	9219
1	1646	9220
1	1629	9221
1	1625	9222
1	1622	9223
1	1628	9224
1	1632	9225
1	1625	9226
1	1615	9227
1	1611	9228
1	1620	9229
1	1635	9230
1	1654	9231
1	1674	9232
1	1691	9233
1	1707	9234
1	1712	9235
1	1710	9236
1	1698	9237
1	1689	9238
1	1677	9239
1	1647	9240
1	1618	9241
1	1595	9242
1	1577	9243
1	1564	9244
1	1558	9245
1	1559	9246
1	1561	9247
1	1567	9248
1	1581	9249
1	1602	9250
1	1623	9251
1	1643	9252
1	1661	9253
1	1670	9254
1	1672	9255
1	1660	9256
1	1635	9257
1	1607	9258
1	1573	9259
1	1534	9260
1	1504	9261
1	1492	9262
1	1488	9263
1	1507	9264
1	1553	9265
1	1594	9266
1	1644	9267
1	1685	9268
1	1718	9269
1	1749	9270
1	1771	9271
1	1787	9272
1	1792	9273
1	1791	9274
1	1785	9275
1	1756	9276
1	1713	9277
1	1668	9278
1	1637	9279
1	1620	9280
1	1616	9281
1	1631	9282
1	1645	9283
1	1659	9284
1	1669	9285
1	1682	9286
1	1691	9287
1	1700	9288
1	1718	9289
1	1740	9290
1	1758	9291
1	1769	9292
1	1768	9293
1	1765	9294
1	1764	9295
1	1752	9296
1	1748	9297
1	1738	9298
1	1729	9299
1	1712	9300
1	1701	9301
1	1710	9302
1	1738	9303
1	1791	9304
1	1865	9305
1	1947	9306
1	2027	9307
1	2104	9308
1	2180	9309
1	2256	9310
1	2309	9311
1	2341	9312
1	2367	9313
1	2365	9314
1	2341	9315
1	2296	9316
1	2235	9317
1	2157	9318
1	2079	9319
1	2000	9320
1	1922	9321
1	1845	9322
1	1764	9323
1	1698	9324
1	1643	9325
1	1594	9326
1	1553	9327
1	1516	9328
1	1493	9329
1	1472	9330
1	1450	9331
1	1431	9332
1	1409	9333
1	1382	9334
1	1358	9335
1	1332	9336
1	1304	9337
1	1271	9338
1	1249	9339
1	1237	9340
1	1232	9341
1	1242	9342
1	1267	9343
1	1298	9344
1	1331	9345
1	1374	9346
1	1424	9347
1	1474	9348
1	1530	9349
1	1593	9350
1	1647	9351
1	1688	9352
1	1712	9353
1	1724	9354
1	1729	9355
1	1714	9356
1	1686	9357
1	1659	9358
1	1630	9359
1	1684	9400
1	1671	9401
1	1669	9402
1	1660	9403
1	1648	9404
1	1638	9405
1	1634	9406
1	1634	9407
1	1638	9408
1	1652	9409
1	1674	9410
1	1701	9411
1	1734	9412
1	1763	9413
1	1780	9414
1	1781	9415
1	1762	9416
1	1726	9417
1	1688	9418
1	1643	9419
1	1607	9360
1	1590	9361
1	1582	9362
1	1577	9363
1	1574	9364
1	1580	9365
1	1587	9366
1	1602	9367
1	1622	9368
1	1662	9369
1	1717	9370
1	1762	9371
1	1796	9372
1	1817	9373
1	1822	9374
1	1814	9375
1	1782	9376
1	1738	9377
1	1697	9378
1	1662	9379
1	1634	9380
1	1607	9381
1	1581	9382
1	1563	9383
1	1555	9384
1	1560	9385
1	1570	9386
1	1582	9387
1	1602	9388
1	1625	9389
1	1655	9390
1	1688	9391
1	1724	9392
1	1751	9393
1	1767	9394
1	1766	9395
1	1756	9396
1	1737	9397
1	1712	9398
1	1698	9399
1	1602	9420
1	1576	9421
1	1563	9422
1	1569	9423
1	1593	9424
1	1621	9425
1	1647	9426
1	1671	9427
1	1688	9428
1	1715	9429
1	1742	9430
1	1759	9431
1	1762	9432
1	1763	9433
1	1743	9434
1	1713	9435
1	1697	9436
1	1683	9437
1	1677	9438
1	1677	9439
1	1682	9440
1	1681	9441
1	1675	9442
1	1661	9443
1	1661	9444
1	1672	9445
1	1686	9446
1	1704	9447
1	1731	9448
1	1760	9449
1	1787	9450
1	1816	9451
1	1823	9452
1	1823	9453
1	1811	9454
1	1786	9455
1	1757	9456
1	1721	9457
1	1686	9458
1	1656	9459
1	1634	9460
1	1625	9461
1	1626	9462
1	1634	9463
1	1636	9464
1	1645	9465
1	1660	9466
1	1685	9467
1	1718	9468
1	1764	9469
1	1806	9470
1	1843	9471
1	1860	9472
1	1860	9473
1	1849	9474
1	1818	9475
1	1778	9476
1	1747	9477
1	1712	9478
1	1686	9479
1	1667	9480
1	1651	9481
1	1634	9482
1	1624	9483
1	1618	9484
1	1623	9485
1	1638	9486
1	1648	9487
1	1673	9488
1	1700	9489
1	1728	9490
1	1747	9491
1	1767	9492
1	1778	9493
1	1780	9494
1	1773	9495
1	1757	9496
1	1734	9497
1	1704	9498
1	1677	9499
1	1654	9500
1	1634	9501
1	1619	9502
1	1608	9503
1	1617	9504
1	1638	9505
1	1667	9506
1	1703	9507
1	1751	9508
1	1798	9509
1	1855	9510
1	1899	9511
1	1931	9512
1	1943	9513
1	1933	9514
1	1908	9515
1	1879	9516
1	1843	9517
1	1800	9518
1	1775	9519
1	1760	9520
1	1747	9521
1	1738	9522
1	1724	9523
1	1712	9524
1	1708	9525
1	1712	9526
1	1730	9527
1	1755	9528
1	1777	9529
1	1809	9530
1	1841	9531
1	1868	9532
1	1886	9533
1	1896	9534
1	1899	9535
1	1883	9536
1	1850	9537
1	1803	9538
1	1760	9539
1	1715	9540
1	1685	9541
1	1652	9542
1	1634	9543
1	1634	9544
1	1646	9545
1	1660	9546
1	1683	9547
1	1705	9548
1	1738	9549
1	1778	9550
1	1817	9551
1	1851	9552
1	1888	9553
1	1904	9554
1	1908	9555
1	1895	9556
1	1875	9557
1	1856	9558
1	1839	9559
1	1825	9560
1	1822	9561
1	1822	9562
1	1825	9563
1	1839	9564
1	1848	9565
1	1850	9566
1	1854	9567
1	1853	9568
1	1856	9569
1	1860	9570
1	1863	9571
1	1858	9572
1	1852	9573
1	1843	9574
1	1835	9575
1	1818	9576
1	1798	9577
1	1773	9578
1	1753	9579
1	1738	9580
1	1728	9581
1	1727	9582
1	1728	9583
1	1733	9584
1	1740	9585
1	1756	9586
1	1770	9587
1	1791	9588
1	1819	9589
1	1847	9590
1	1870	9591
1	1895	9592
1	1901	9593
1	1898	9594
1	1877	9595
1	1841	9596
1	1800	9597
1	1754	9598
1	1717	9599
1	1687	9600
1	1675	9601
1	1676	9602
1	1686	9603
1	1706	9604
1	1737	9605
1	1770	9606
1	1801	9607
1	1823	9608
1	1843	9609
1	1873	9610
1	1911	9611
1	1944	9612
1	1973	9613
1	1975	9614
1	1968	9615
1	1943	9616
1	1896	9617
1	1844	9618
1	1791	9619
1	1594	9640
1	1552	9641
1	1512	9642
1	1477	9643
1	1461	9644
1	1456	9645
1	1476	9646
1	1490	9647
1	1513	9648
1	1548	9649
1	1584	9650
1	1621	9651
1	1657	9652
1	1675	9653
1	1688	9654
1	1688	9655
1	1677	9656
1	1657	9657
1	1642	9658
1	1612	9659
1	1742	9620
1	1709	9621
1	1686	9622
1	1669	9623
1	1659	9624
1	1656	9625
1	1656	9626
1	1659	9627
1	1661	9628
1	1675	9629
1	1698	9630
1	1720	9631
1	1749	9632
1	1766	9633
1	1770	9634
1	1769	9635
1	1751	9636
1	1717	9637
1	1681	9638
1	1638	9639
1	1581	9660
1	1549	9661
1	1525	9662
1	1514	9663
1	1525	9664
1	1541	9665
1	1561	9666
1	1584	9667
1	1599	9668
1	1621	9669
1	1643	9670
1	1665	9671
1	1699	9672
1	1721	9673
1	1728	9674
1	1713	9675
1	1686	9676
1	1648	9677
1	1620	9678
1	1606	9679
1	1592	9680
1	1589	9681
1	1592	9682
1	1587	9683
1	1582	9684
1	1581	9685
1	1575	9686
1	1579	9687
1	1581	9688
1	1590	9689
1	1611	9690
1	1638	9691
1	1659	9692
1	1670	9693
1	1669	9694
1	1662	9695
1	1647	9696
1	1613	9697
1	1580	9698
1	1554	9699
1	1527	9700
1	1508	9701
1	1503	9702
1	1494	9703
1	1493	9704
1	1500	9705
1	1516	9706
1	1544	9707
1	1587	9708
1	1634	9709
1	1679	9710
1	1712	9711
1	1735	9712
1	1739	9713
1	1737	9714
1	1720	9715
1	1689	9716
1	1649	9717
1	1602	9718
1	1553	9719
1	1623	9740
1	1616	9741
1	1615	9742
1	1612	9743
1	1612	9744
1	1611	9745
1	1607	9746
1	1604	9747
1	1607	9748
1	1620	9749
1	1634	9750
1	1647	9751
1	1667	9752
1	1685	9753
1	1693	9754
1	1690	9755
1	1674	9756
1	1654	9757
1	1619	9758
1	1581	9759
1	1510	9720
1	1485	9721
1	1475	9722
1	1476	9723
1	1482	9724
1	1497	9725
1	1520	9726
1	1549	9727
1	1579	9728
1	1613	9729
1	1648	9730
1	1680	9731
1	1705	9732
1	1721	9733
1	1721	9734
1	1713	9735
1	1699	9736
1	1670	9737
1	1644	9738
1	1632	9739
1	1550	9760
1	1527	9761
1	1504	9762
1	1498	9763
1	1485	9764
1	1476	9765
1	1476	9766
1	1485	9767
1	1507	9768
1	1548	9769
1	1602	9770
1	1665	9771
1	1731	9772
1	1772	9773
1	1796	9774
1	1803	9775
1	1790	9776
1	1764	9777
1	1728	9778
1	1686	9779
1	1646	9780
1	1611	9781
1	1587	9782
1	1580	9783
1	1581	9784
1	1593	9785
1	1607	9786
1	1613	9787
1	1626	9788
1	1649	9789
1	1684	9790
1	1719	9791
1	1756	9792
1	1775	9793
1	1788	9794
1	1790	9795
1	1780	9796
1	1769	9797
1	1763	9798
1	1742	9799
1	1711	9800
1	1670	9801
1	1634	9802
1	1597	9803
1	1565	9804
1	1536	9805
1	1516	9806
1	1499	9807
1	1499	9808
1	1513	9809
1	1541	9810
1	1583	9811
1	1634	9812
1	1674	9813
1	1700	9814
1	1712	9815
1	1703	9816
1	1674	9817
1	1634	9818
1	1607	9819
1	1587	9820
1	1581	9821
1	1589	9822
1	1598	9823
1	1608	9824
1	1625	9825
1	1646	9826
1	1677	9827
1	1710	9828
1	1728	9829
1	1743	9830
1	1754	9831
1	1754	9832
1	1749	9833
1	1737	9834
1	1714	9835
1	1681	9836
1	1635	9837
1	1600	9838
1	1571	9839
1	1546	9840
1	1528	9841
1	1512	9842
1	1512	9843
1	1529	9844
1	1553	9845
1	1581	9846
1	1608	9847
1	1634	9848
1	1662	9849
1	1686	9850
1	1705	9851
1	1727	9852
1	1749	9853
1	1755	9854
1	1760	9855
1	1749	9856
1	1722	9857
1	1690	9858
1	1660	9859
1	1632	9860
1	1611	9861
1	1607	9862
1	1608	9863
1	1631	9864
1	1656	9865
1	1674	9866
1	1695	9867
1	1712	9868
1	1739	9869
1	1775	9870
1	1813	9871
1	1826	9872
1	1817	9873
1	1783	9874
1	1739	9875
1	1681	9876
1	1620	9877
1	1557	9878
1	1520	9879
1	1497	9880
1	1494	9881
1	1511	9882
1	1527	9883
1	1549	9884
1	1574	9885
1	1598	9886
1	1620	9887
1	1638	9888
1	1656	9889
1	1681	9890
1	1701	9891
1	1727	9892
1	1743	9893
1	1742	9894
1	1718	9895
1	1678	9896
1	1634	9897
1	1598	9898
1	1564	9899
1	1535	9900
1	1513	9901
1	1503	9902
1	1504	9903
1	1523	9904
1	1551	9905
1	1579	9906
1	1606	9907
1	1625	9908
1	1649	9909
1	1675	9910
1	1697	9911
1	1712	9912
1	1733	9913
1	1731	9914
1	1724	9915
1	1708	9916
1	1683	9917
1	1648	9918
1	1618	9919
1	1566	9940
1	1535	9941
1	1513	9942
1	1502	9943
1	1503	9944
1	1518	9945
1	1547	9946
1	1572	9947
1	1602	9948
1	1634	9949
1	1662	9950
1	1690	9951
1	1720	9952
1	1738	9953
1	1744	9954
1	1733	9955
1	1704	9956
1	1665	9957
1	1634	9958
1	1603	9959
1	1589	9920
1	1566	9921
1	1553	9922
1	1530	9923
1	1526	9924
1	1533	9925
1	1549	9926
1	1581	9927
1	1622	9928
1	1660	9929
1	1698	9930
1	1729	9931
1	1750	9932
1	1749	9933
1	1746	9934
1	1736	9935
1	1713	9936
1	1679	9937
1	1638	9938
1	1599	9939
1	1583	9960
1	1572	9961
1	1567	9962
1	1572	9963
1	1584	9964
1	1607	9965
1	1634	9966
1	1665	9967
1	1695	9968
1	1721	9969
1	1741	9970
1	1756	9971
1	1771	9972
1	1769	9973
1	1753	9974
1	1728	9975
1	1688	9976
1	1659	9977
1	1639	9978
1	1625	9979
1	1608	9980
1	1594	9981
1	1581	9982
1	1561	9983
1	1555	9984
1	1556	9985
1	1564	9986
1	1585	9987
1	1616	9988
1	1654	9989
1	1703	9990
1	1747	9991
1	1774	9992
1	1791	9993
1	1809	9994
1	1807	9995
1	1779	9996
1	1747	9997
1	1712	9998
1	1686	9999
1	1662	10000
1	1643	10001
1	1633	10002
1	1616	10003
1	1609	10004
1	1614	10005
1	1632	10006
1	1656	10007
1	1684	10008
1	1714	10009
1	1749	10010
1	1773	10011
1	1789	10012
1	1782	10013
1	1769	10014
1	1749	10015
1	1716	10016
1	1682	10017
1	1660	10018
1	1638	10019
1	1631	10020
1	1627	10021
1	1631	10022
1	1639	10023
1	1660	10024
1	1680	10025
1	1698	10026
1	1714	10027
1	1726	10028
1	1743	10029
1	1761	10030
1	1766	10031
1	1764	10032
1	1750	10033
1	1726	10034
1	1693	10035
1	1661	10036
1	1615	10037
1	1566	10038
1	1520	10039
1	1485	10040
1	1463	10041
1	1447	10042
1	1433	10043
1	1426	10044
1	1427	10045
1	1450	10046
1	1497	10047
1	1562	10048
1	1618	10049
1	1663	10050
1	1707	10051
1	1735	10052
1	1742	10053
1	1730	10054
1	1710	10055
1	1674	10056
1	1631	10057
1	1584	10058
1	1551	10059
1	1526	10060
1	1511	10061
1	1508	10062
1	1521	10063
1	1534	10064
1	1554	10065
1	1580	10066
1	1607	10067
1	1636	10068
1	1661	10069
1	1682	10070
1	1697	10071
1	1698	10072
1	1685	10073
1	1661	10074
1	1634	10075
1	1599	10076
1	1562	10077
1	1518	10078
1	1476	10079
1	1449	10080
1	1445	10081
1	1451	10082
1	1474	10083
1	1493	10084
1	1513	10085
1	1529	10086
1	1541	10087
1	1548	10088
1	1571	10089
1	1595	10090
1	1620	10091
1	1654	10092
1	1674	10093
1	1688	10094
1	1692	10095
1	1672	10096
1	1634	10097
1	1598	10098
1	1564	10099
1	1531	10100
1	1501	10101
1	1476	10102
1	1452	10103
1	1449	10104
1	1454	10105
1	1476	10106
1	1503	10107
1	1550	10108
1	1595	10109
1	1642	10110
1	1684	10111
1	1710	10112
1	1731	10113
1	1743	10114
1	1742	10115
1	1725	10116
1	1692	10117
1	1663	10118
1	1647	10119
1	1637	10120
1	1641	10121
1	1661	10122
1	1688	10123
1	1729	10124
1	1780	10125
1	1843	10126
1	1908	10127
1	1986	10128
1	2066	10129
1	2148	10130
1	2217	10131
1	2269	10132
1	2292	10133
1	2288	10134
1	2262	10135
1	2205	10136
1	2131	10137
1	2052	10138
1	1971	10139
1	1888	10140
1	1811	10141
1	1724	10142
1	1657	10143
1	1604	10144
1	1563	10145
1	1526	10146
1	1487	10147
