#Date:= 2024-10-01T15:11:15.847739
#Sampling Rate(Hz):= 1000
#Labels:= LOD	ECG	TS
1	128	20
1	128	21
1	128	22
1	128	23
1	128	24
1	128	25
1	128	26
1	184	27
1	1327	28
1	2931	29
1	3130	30
1	3130	31
1	3130	32
1	3130	33
1	759	34
1	709	35
1	698	36
1	731	37
1	808	38
1	924	39
1	1078	40
1	1245	41
1	1417	42
1	1570	43
1	1660	44
1	1712	45
1	1711	46
1	1665	47
1	1579	48
1	1443	49
1	1296	50
1	1159	51
1	1040	52
1	958	53
1	921	54
1	914	55
1	927	56
1	963	57
1	1027	58
1	1125	59
1	1267	60
1	1431	61
1	1592	62
1	1724	63
1	1809	64
1	1841	65
1	1817	66
1	1754	67
1	1658	68
1	1507	69
1	1313	70
1	1108	71
1	914	72
1	745	73
1	627	74
1	540	75
1	503	76
1	518	77
1	580	78
1	682	79
1	821	80
1	992	81
1	1161	82
1	1305	83
1	1404	84
1	1464	85
1	1481	86
1	1428	87
1	1309	88
1	1176	89
1	1017	90
1	843	91
1	685	92
1	546	93
1	441	94
1	369	95
1	338	96
1	364	97
1	447	98
1	577	99
1	722	100
1	906	101
1	1114	102
1	1292	103
1	1384	104
1	1445	105
1	1430	106
1	1348	107
1	1222	108
1	1050	109
1	848	110
1	639	111
1	443	112
1	281	113
1	159	114
1	128	115
1	128	116
1	128	117
1	190	118
1	298	119
1	454	120
1	638	121
1	822	122
1	993	123
1	1117	124
1	1188	125
1	1201	126
1	1148	127
1	1044	128
1	900	129
1	741	130
1	582	131
1	432	132
1	300	133
1	230	134
1	186	135
1	186	136
1	238	137
1	324	138
1	448	139
1	767	180
1	945	181
1	1123	182
1	1280	183
1	1395	184
1	1446	185
1	1436	186
1	1360	187
1	1241	188
1	1088	189
1	903	190
1	700	191
1	495	192
1	313	193
1	199	194
1	135	195
1	128	196
1	152	197
1	222	198
1	314	199
1	606	140
1	775	141
1	952	142
1	1107	143
1	1224	144
1	1293	145
1	1309	146
1	1266	147
1	1157	148
1	1021	149
1	849	150
1	677	151
1	518	152
1	395	153
1	305	154
1	247	155
1	227	156
1	257	157
1	346	158
1	470	159
1	427	200
1	562	201
1	704	202
1	829	203
1	895	204
1	916	205
1	882	206
1	796	207
1	662	208
1	490	209
1	297	210
1	128	211
1	128	212
1	128	213
1	128	214
1	128	215
1	128	216
1	128	217
1	128	218
1	128	219
1	639	160
1	829	161
1	1022	162
1	1197	163
1	1294	164
1	1359	165
1	1355	166
1	1293	167
1	1193	168
1	1058	169
1	903	170
1	742	171
1	594	172
1	470	173
1	382	174
1	338	175
1	342	176
1	398	177
1	500	178
1	612	179
1	225	220
1	394	221
1	577	222
1	762	223
1	899	224
1	1003	225
1	1053	226
1	1053	227
1	1005	228
1	900	229
1	762	230
1	612	231
1	468	232
1	345	233
1	244	234
1	180	235
1	166	236
1	202	237
1	288	238
1	413	239
1	574	240
1	742	241
1	921	242
1	1096	243
1	1222	244
1	1292	245
1	1294	246
1	1239	247
1	1121	248
1	954	249
1	773	250
1	599	251
1	444	252
1	302	253
1	237	254
1	202	255
1	211	256
1	274	257
1	375	258
1	502	259
1	663	260
1	844	261
1	1024	262
1	1183	263
1	1297	264
1	1359	265
1	1355	266
1	1285	267
1	1135	268
1	986	269
1	796	270
1	602	271
1	426	272
1	285	273
1	186	274
1	141	275
1	145	276
1	206	277
1	310	278
1	452	279
1	663	300
1	831	301
1	1007	302
1	1161	303
1	1272	304
1	1330	305
1	1319	306
1	1262	307
1	1148	308
1	1016	309
1	864	310
1	715	311
1	569	312
1	427	313
1	338	314
1	283	315
1	273	316
1	315	317
1	403	318
1	526	319
1	640	280
1	859	281
1	1081	282
1	1267	283
1	1384	284
1	1450	285
1	1446	286
1	1364	287
1	1232	288
1	1059	289
1	874	290
1	697	291
1	534	292
1	392	293
1	286	294
1	233	295
1	233	296
1	288	297
1	392	298
1	509	299
1	695	320
1	885	321
1	1083	322
1	1253	323
1	1377	324
1	1448	325
1	1437	326
1	1357	327
1	1213	328
1	1058	329
1	879	330
1	706	331
1	544	332
1	404	333
1	307	334
1	261	335
1	272	336
1	348	337
1	495	338
1	626	339
1	815	340
1	1018	341
1	1204	342
1	1346	343
1	1453	344
1	1503	345
1	1498	346
1	1433	347
1	1305	348
1	1140	349
1	941	350
1	743	351
1	559	352
1	407	353
1	302	354
1	244	355
1	225	356
1	253	357
1	343	358
1	442	359
1	599	360
1	774	361
1	954	362
1	1124	363
1	1258	364
1	1338	365
1	1358	366
1	1323	367
1	1237	368
1	1112	369
1	957	370
1	796	371
1	643	372
1	495	373
1	410	374
1	348	375
1	330	376
1	360	377
1	434	378
1	544	379
1	692	380
1	862	381
1	1031	382
1	1172	383
1	1276	384
1	1332	385
1	1332	386
1	1276	387
1	1161	388
1	1044	389
1	891	390
1	744	391
1	614	392
1	507	393
1	427	394
1	378	395
1	373	396
1	406	397
1	482	398
1	603	399
1	760	400
1	941	401
1	1123	402
1	1278	403
1	1373	404
1	1432	405
1	1425	406
1	1368	407
1	1263	408
1	1110	409
1	933	410
1	767	411
1	621	412
1	499	413
1	405	414
1	345	415
1	323	416
1	343	417
1	425	418
1	516	419
1	665	420
1	844	421
1	1031	422
1	1203	423
1	1325	424
1	1402	425
1	1421	426
1	1377	427
1	1289	428
1	1153	429
1	990	430
1	811	431
1	652	432
1	495	433
1	396	434
1	315	435
1	281	436
1	302	437
1	366	438
1	478	439
1	629	440
1	811	441
1	1005	442
1	1175	443
1	1306	444
1	1384	445
1	1400	446
1	1343	447
1	1209	448
1	1060	449
1	877	450
1	695	451
1	524	452
1	382	453
1	279	454
1	222	455
1	220	456
1	257	457
1	327	458
1	429	459
1	575	460
1	745	461
1	925	462
1	1098	463
1	1188	464
1	1242	465
1	1231	466
1	1162	467
1	1049	468
1	905	469
1	752	470
1	601	471
1	452	472
1	319	473
1	212	474
1	145	475
1	130	476
1	166	477
1	258	478
1	358	479
1	504	480
1	669	481
1	842	482
1	1005	483
1	1122	484
1	1193	485
1	1211	486
1	1153	487
1	1033	488
1	873	489
1	695	490
1	520	491
1	363	492
1	220	493
1	132	494
1	128	495
1	128	496
1	128	497
1	224	498
1	366	499
1	542	500
1	743	501
1	943	502
1	1110	503
1	1224	504
1	1259	505
1	1233	506
1	1151	507
1	1020	508
1	848	509
1	665	510
1	478	511
1	315	512
1	181	513
1	128	514
1	128	515
1	128	516
1	128	517
1	222	518
1	352	519
1	522	520
1	720	521
1	927	522
1	1131	523
1	1251	524
1	1330	525
1	1333	526
1	1269	527
1	1151	528
1	976	529
1	768	530
1	560	531
1	374	532
1	225	533
1	129	534
1	128	535
1	128	536
1	128	537
1	193	538
1	317	539
1	468	560
1	639	561
1	807	562
1	963	563
1	1084	564
1	1150	565
1	1159	566
1	1115	567
1	1023	568
1	900	569
1	764	570
1	621	571
1	481	572
1	337	573
1	261	574
1	198	575
1	176	576
1	195	577
1	259	578
1	351	579
1	485	560
1	652	561
1	822	562
1	985	563
1	1107	564
1	1179	565
1	1187	566
1	1132	567
1	997	568
1	850	569
1	674	570
1	490	571
1	324	572
1	191	573
1	128	574
1	128	575
1	128	576
1	128	577
1	190	578
1	324	579
1	487	580
1	675	581
1	861	582
1	1035	583
1	1152	584
1	1226	585
1	1241	586
1	1191	587
1	1091	588
1	939	589
1	760	590
1	582	591
1	418	592
1	294	593
1	204	594
1	156	595
1	152	596
1	197	597
1	295	598
1	413	599
1	585	600
1	778	601
1	980	602
1	1157	603
1	1285	604
1	1337	605
1	1330	606
1	1254	607
1	1123	608
1	950	609
1	760	610
1	586	611
1	430	612
1	298	613
1	238	614
1	207	615
1	212	616
1	266	617
1	362	618
1	489	619
1	652	620
1	836	621
1	1029	622
1	1197	623
1	1322	624
1	1392	625
1	1383	626
1	1310	627
1	1168	628
1	1011	629
1	813	630
1	614	631
1	434	632
1	284	633
1	179	634
1	128	635
1	128	636
1	159	637
1	273	638
1	377	639
1	546	640
1	743	641
1	948	642
1	1112	643
1	1242	644
1	1323	645
1	1346	646
1	1302	647
1	1193	648
1	1039	649
1	850	650
1	661	651
1	491	652
1	350	653
1	246	654
1	182	655
1	164	656
1	189	657
1	285	658
1	378	659
1	531	660
1	704	661
1	883	662
1	1056	663
1	1174	664
1	1243	665
1	1255	666
1	1200	667
1	1088	668
1	936	669
1	771	670
1	605	671
1	446	672
1	288	673
1	202	674
1	138	675
1	128	676
1	153	677
1	229	678
1	342	679
1	500	680
1	691	681
1	887	682
1	1067	683
1	1193	684
1	1265	685
1	1278	686
1	1233	687
1	1130	688
1	1013	689
1	860	690
1	706	691
1	569	692
1	455	693
1	364	694
1	300	695
1	283	696
1	311	697
1	386	698
1	495	699
1	643	700
1	810	701
1	989	702
1	1152	703
1	1254	704
1	1312	705
1	1310	706
1	1243	707
1	1123	708
1	959	709
1	782	710
1	604	711
1	437	712
1	298	713
1	193	714
1	140	715
1	142	716
1	200	717
1	324	718
1	434	719
1	611	720
1	800	721
1	1000	722
1	1176	723
1	1311	724
1	1396	725
1	1407	726
1	1346	727
1	1232	728
1	1076	729
1	898	730
1	717	731
1	560	732
1	402	733
1	322	734
1	265	735
1	257	736
1	300	737
1	397	738
1	526	739
1	764	760
1	944	761
1	1116	762
1	1286	763
1	1382	764
1	1451	765
1	1450	766
1	1369	767
1	1238	768
1	1065	769
1	887	770
1	717	771
1	576	772
1	455	773
1	374	774
1	326	775
1	324	776
1	368	777
1	471	778
1	586	779
1	694	740
1	896	741
1	1103	742
1	1278	743
1	1414	744
1	1484	745
1	1482	746
1	1410	747
1	1253	748
1	1096	749
1	900	750
1	709	751
1	534	752
1	397	753
1	302	754
1	265	755
1	273	756
1	337	757
1	445	758
1	591	759
1	748	780
1	939	781
1	1134	782
1	1305	783
1	1436	784
1	1513	785
1	1524	786
1	1459	787
1	1335	788
1	1175	789
1	991	790
1	796	791
1	626	792
1	461	793
1	384	794
1	333	795
1	336	796
1	384	797
1	479	798
1	612	799
1	784	800
1	980	801
1	1162	802
1	1320	803
1	1445	804
1	1494	805
1	1490	806
1	1427	807
1	1307	808
1	1145	809
1	959	810
1	777	811
1	615	812
1	481	813
1	396	814
1	351	815
1	361	816
1	429	817
1	544	818
1	694	819
1	854	840
1	1046	841
1	1226	842
1	1393	843
1	1513	844
1	1575	845
1	1571	846
1	1503	847
1	1364	848
1	1183	849
1	979	850
1	770	851
1	599	852
1	429	853
1	360	854
1	307	855
1	299	856
1	344	857
1	443	858
1	585	859
1	873	820
1	1070	821
1	1249	822
1	1416	823
1	1493	824
1	1529	825
1	1499	826
1	1403	827
1	1263	828
1	1091	829
1	901	830
1	716	831
1	539	832
1	396	833
1	300	834
1	272	835
1	307	836
1	402	837
1	529	838
1	683	839
1	759	860
1	961	861
1	1163	862
1	1344	863
1	1490	864
1	1581	865
1	1607	866
1	1563	867
1	1424	868
1	1284	869
1	1106	870
1	914	871
1	743	872
1	608	873
1	512	874
1	467	875
1	469	876
1	531	877
1	643	878
1	798	879
1	996	880
1	1202	881
1	1403	882
1	1580	883
1	1680	884
1	1738	885
1	1736	886
1	1670	887
1	1562	888
1	1407	889
1	1219	890
1	1034	891
1	876	892
1	759	893
1	685	894
1	644	895
1	641	896
1	684	897
1	775	898
1	879	899
1	1033	900
1	1214	901
1	1384	902
1	1545	903
1	1660	904
1	1725	905
1	1719	906
1	1647	907
1	1516	908
1	1342	909
1	1151	910
1	944	911
1	751	912
1	560	913
1	433	914
1	339	915
1	297	916
1	310	917
1	377	918
1	481	919
1	628	920
1	800	921
1	987	922
1	1155	923
1	1280	924
1	1343	925
1	1328	926
1	1242	927
1	1080	928
1	914	929
1	717	930
1	534	931
1	384	932
1	285	933
1	233	934
1	228	935
1	264	936
1	346	937
1	482	938
1	609	939
1	804	940
1	1026	941
1	1238	942
1	1413	943
1	1538	944
1	1605	945
1	1607	946
1	1543	947
1	1425	948
1	1279	949
1	1113	950
1	944	951
1	791	952
1	665	953
1	595	954
1	574	955
1	599	956
1	670	957
1	811	958
1	929	959
1	1114	960
1	1310	961
1	1502	962
1	1673	963
1	1786	964
1	1843	965
1	1818	966
1	1729	967
1	1587	968
1	1402	969
1	1188	970
1	972	971
1	777	972
1	607	973
1	526	974
1	480	975
1	484	976
1	554	977
1	675	978
1	834	979
1	1031	980
1	1250	981
1	1467	982
1	1651	983
1	1782	984
1	1855	985
1	1859	986
1	1798	987
1	1660	988
1	1521	989
1	1333	990
1	1139	991
1	954	992
1	797	993
1	672	994
1	598	995
1	574	996
1	603	997
1	683	998
1	801	999
1	954	1000
1	1138	1001
1	1329	1002
1	1517	1003
1	1639	1004
1	1724	1005
1	1736	1006
1	1679	1007
1	1573	1008
1	1423	1009
1	1254	1010
1	1095	1011
1	951	1012
1	837	1013
1	759	1014
1	721	1015
1	724	1016
1	771	1017
1	865	1018
1	977	1019
1	1136	1020
1	1319	1021
1	1499	1022
1	1656	1023
1	1766	1024
1	1828	1025
1	1826	1026
1	1756	1027
1	1635	1028
1	1485	1029
1	1311	1030
1	1137	1031
1	979	1032
1	833	1033
1	756	1034
1	706	1035
1	696	1036
1	735	1037
1	829	1038
1	953	1039
1	1054	1060
1	1241	1061
1	1437	1062
1	1634	1063
1	1731	1064
1	1802	1065
1	1817	1066
1	1767	1067
1	1680	1068
1	1557	1069
1	1422	1070
1	1276	1071
1	1128	1072
1	988	1073
1	873	1074
1	797	1075
1	769	1076
1	793	1077
1	886	1078
1	996	1079
1	1157	1080
1	1335	1081
1	1508	1082
1	1660	1083
1	1765	1084
1	1829	1085
1	1832	1086
1	1770	1087
1	1669	1088
1	1533	1089
1	1371	1090
1	1209	1091
1	1064	1092
1	940	1093
1	883	1094
1	863	1095
1	878	1096
1	932	1097
1	1039	1098
1	1175	1099
1	1332	1100
1	1503	1101
1	1664	1102
1	1811	1103
1	1917	1104
1	1974	1105
1	1973	1106
1	1906	1107
1	1762	1108
1	1623	1109
1	1447	1110
1	1254	1111
1	1068	1112
1	915	1113
1	820	1114
1	784	1115
1	804	1116
1	870	1117
1	987	1118
1	1137	1119
1	1124	1040
1	1323	1041
1	1506	1042
1	1678	1043
1	1808	1044
1	1890	1045
1	1914	1046
1	1874	1047
1	1772	1048
1	1626	1049
1	1454	1050
1	1269	1051
1	1094	1052
1	923	1053
1	796	1054
1	706	1055
1	678	1056
1	706	1057
1	781	1058
1	893	1059
1	1320	1120
1	1525	1121
1	1724	1122
1	1909	1123
1	2012	1124
1	2067	1125
1	2052	1126
1	1967	1127
1	1841	1128
1	1674	1129
1	1500	1130
1	1324	1131
1	1172	1132
1	1043	1133
1	941	1134
1	882	1135
1	875	1136
1	924	1137
1	1021	1138
1	1162	1139
1	1334	1140
1	1528	1141
1	1723	1142
1	1895	1143
1	2032	1144
1	2106	1145
1	2111	1146
1	2052	1147
1	1934	1148
1	1770	1149
1	1593	1150
1	1408	1151
1	1232	1152
1	1058	1153
1	995	1154
1	939	1155
1	941	1156
1	1005	1157
1	1110	1158
1	1241	1159
1	1409	1160
1	1595	1161
1	1778	1162
1	1931	1163
1	2032	1164
1	2079	1165
1	2074	1166
1	2008	1167
1	1849	1168
1	1708	1169
1	1520	1170
1	1322	1171
1	1148	1172
1	1008	1173
1	903	1174
1	848	1175
1	837	1176
1	875	1177
1	953	1178
1	1067	1179
1	1220	1180
1	1400	1181
1	1580	1182
1	1744	1183
1	1843	1184
1	1895	1185
1	1886	1186
1	1821	1187
1	1712	1188
1	1574	1189
1	1409	1190
1	1233	1191
1	1082	1192
1	953	1193
1	867	1194
1	826	1195
1	837	1196
1	897	1197
1	1018	1198
1	1138	1199
1	1304	1200
1	1482	1201
1	1652	1202
1	1800	1203
1	1904	1204
1	1945	1205
1	1922	1206
1	1843	1207
1	1718	1208
1	1566	1209
1	1396	1210
1	1217	1211
1	1058	1212
1	893	1213
1	801	1214
1	745	1215
1	745	1216
1	799	1217
1	903	1218
1	1050	1219
1	1228	1220
1	1430	1221
1	1622	1222
1	1789	1223
1	1911	1224
1	1974	1225
1	1971	1226
1	1899	1227
1	1738	1228
1	1582	1229
1	1384	1230
1	1194	1231
1	1031	1232
1	912	1233
1	841	1234
1	814	1235
1	830	1236
1	896	1237
1	993	1238
1	1121	1239
1	1240	1260
1	1428	1261
1	1618	1262
1	1803	1263
1	1929	1264
1	2004	1265
1	2023	1266
1	1976	1267
1	1893	1268
1	1764	1269
1	1607	1270
1	1437	1271
1	1267	1272
1	1084	1273
1	985	1274
1	888	1275
1	848	1276
1	864	1277
1	940	1278
1	1067	1279
1	1275	1240
1	1440	1241
1	1593	1242
1	1715	1243
1	1814	1244
1	1861	1245
1	1847	1246
1	1777	1247
1	1661	1248
1	1535	1249
1	1395	1250
1	1242	1251
1	1109	1252
1	990	1253
1	899	1254
1	843	1255
1	831	1256
1	867	1257
1	978	1258
1	1073	1259
1	1228	1280
1	1418	1281
1	1602	1282
1	1762	1283
1	1877	1284
1	1932	1285
1	1924	1286
1	1864	1287
1	1734	1288
1	1608	1289
1	1449	1290
1	1284	1291
1	1141	1292
1	1037	1293
1	972	1294
1	950	1295
1	981	1296
1	1047	1297
1	1148	1298
1	1281	1299
1	1453	1300
1	1634	1301
1	1818	1302
1	1978	1303
1	2062	1304
1	2099	1305
1	2061	1306
1	1970	1307
1	1834	1308
1	1657	1309
1	1465	1310
1	1279	1311
1	1118	1312
1	1003	1313
1	927	1314
1	909	1315
1	939	1316
1	1020	1317
1	1151	1318
1	1283	1319
1	1467	1320
1	1659	1321
1	1841	1322
1	1989	1323
1	2080	1324
1	2119	1325
1	2099	1326
1	2026	1327
1	1922	1328
1	1787	1329
1	1626	1330
1	1467	1331
1	1319	1332
1	1176	1333
1	1102	1334
1	1058	1335
1	1058	1336
1	1108	1337
1	1190	1338
1	1319	1339
1	1468	1340
1	1638	1341
1	1796	1342
1	1939	1343
1	2027	1344
1	2075	1345
1	2065	1346
1	1999	1347
1	1881	1348
1	1729	1349
1	1581	1350
1	1456	1351
1	1370	1352
1	1332	1353
1	1363	1354
1	1429	1355
1	1517	1356
1	1634	1357
1	1759	1358
1	1895	1359
1	2038	1360
1	2183	1361
1	2315	1362
1	2421	1363
1	2456	1364
1	2447	1365
1	2380	1366
1	2270	1367
1	2115	1368
1	1950	1369
1	1764	1370
1	1585	1371
1	1424	1372
1	1280	1373
1	1188	1374
1	1142	1375
1	1149	1376
1	1214	1377
1	1346	1378
1	1476	1379
1	1652	1380
1	1840	1381
1	2004	1382
1	2145	1383
1	2237	1384
1	2275	1385
1	2263	1386
1	2192	1387
1	2063	1388
1	1895	1389
1	1698	1390
1	1511	1391
1	1341	1392
1	1188	1393
1	1122	1394
1	1084	1395
1	1098	1396
1	1161	1397
1	1271	1398
1	1423	1399
1	1600	1400
1	1791	1401
1	1971	1402
1	2113	1403
1	2210	1404
1	2263	1405
1	2242	1406
1	2155	1407
1	1992	1408
1	1853	1409
1	1678	1410
1	1513	1411
1	1366	1412
1	1256	1413
1	1181	1414
1	1157	1415
1	1187	1416
1	1262	1417
1	1372	1418
1	1519	1419
1	1698	1420
1	1895	1421
1	2079	1422
1	2247	1423
1	2333	1424
1	2374	1425
1	2345	1426
1	2253	1427
1	2117	1428
1	1949	1429
1	1777	1430
1	1619	1431
1	1476	1432
1	1356	1433
1	1268	1434
1	1225	1435
1	1231	1436
1	1291	1437
1	1395	1438
1	1538	1439
1	1699	1440
1	1881	1441
1	2051	1442
1	2198	1443
1	2314	1444
1	2367	1445
1	2367	1446
1	2310	1447
1	2188	1448
1	2048	1449
1	1887	1450
1	1714	1451
1	1555	1452
1	1391	1453
1	1324	1454
1	1280	1455
1	1284	1456
1	1341	1457
1	1446	1458
1	1583	1459
1	1751	1460
1	1940	1461
1	2118	1462
1	2281	1463
1	2405	1464
1	2472	1465
1	2471	1466
1	2402	1467
1	2286	1468
1	2128	1469
1	1967	1470
1	1808	1471
1	1658	1472
1	1543	1473
1	1458	1474
1	1413	1475
1	1413	1476
1	1458	1477
1	1544	1478
1	1657	1479
1	1793	1480
1	1956	1481
1	2107	1482
1	2260	1483
1	2340	1484
1	2397	1485
1	2406	1486
1	2364	1487
1	2273	1488
1	2131	1489
1	1971	1490
1	1799	1491
1	1643	1492
1	1515	1493
1	1436	1494
1	1406	1495
1	1428	1496
1	1502	1497
1	1613	1498
1	1748	1499
1	1922	1500
1	2099	1501
1	2264	1502
1	2406	1503
1	2495	1504
1	2517	1505
1	2499	1506
1	2413	1507
1	2279	1508
1	2124	1509
1	1962	1510
1	1806	1511
1	1665	1512
1	1557	1513
1	1484	1514
1	1460	1515
1	1487	1516
1	1567	1517
1	1691	1518
1	1834	1519
1	2000	1520
1	2172	1521
1	2341	1522
1	2487	1523
1	2570	1524
1	2609	1525
1	2597	1526
1	2536	1527
1	2435	1528
1	2276	1529
1	2106	1530
1	1940	1531
1	1791	1532
1	1683	1533
1	1608	1534
1	1567	1535
1	1569	1536
1	1620	1537
1	1698	1538
1	1818	1539
1	1971	1540
1	2143	1541
1	2309	1542
1	2446	1543
1	2535	1544
1	2579	1545
1	2565	1546
1	2503	1547
1	2389	1548
1	2246	1549
1	2104	1550
1	1986	1551
1	1888	1552
1	1803	1553
1	1739	1554
1	1697	1555
1	1686	1556
1	1722	1557
1	1793	1558
1	1888	1559
1	2005	1560
1	2147	1561
1	2291	1562
1	2417	1563
1	2503	1564
1	2526	1565
1	2516	1566
1	2463	1567
1	2367	1568
1	2236	1569
1	2096	1570
1	1962	1571
1	1854	1572
1	1764	1573
1	1700	1574
1	1673	1575
1	1685	1576
1	1723	1577
1	1790	1578
1	1883	1579
1	2008	1580
1	2156	1581
1	2309	1582
1	2445	1583
1	2535	1584
1	2575	1585
1	2562	1586
1	2503	1587
1	2393	1588
1	2248	1589
1	2094	1590
1	1950	1591
1	1817	1592
1	1711	1593
1	1643	1594
1	1607	1595
1	1620	1596
1	1682	1597
1	1777	1598
1	1907	1599
1	2063	1600
1	2243	1601
1	2422	1602
1	2565	1603
1	2660	1604
1	2707	1605
1	2699	1606
1	2637	1607
1	2538	1608
1	2410	1609
1	2248	1610
1	2082	1611
1	1939	1612
1	1826	1613
1	1744	1614
1	1711	1615
1	1720	1616
1	1775	1617
1	1872	1618
1	1983	1619
1	2119	1620
1	2274	1621
1	2424	1622
1	2553	1623
1	2650	1624
1	2702	1625
1	2699	1626
1	2647	1627
1	2559	1628
1	2457	1629
1	2327	1630
1	2187	1631
1	2065	1632
1	1963	1633
1	1869	1634
1	1803	1635
1	1786	1636
1	1819	1637
1	1898	1638
1	2016	1639
1	2156	1640
1	2314	1641
1	2464	1642
1	2577	1643
1	2664	1644
1	2706	1645
1	2699	1646
1	2640	1647
1	2538	1648
1	2413	1649
1	2276	1650
1	2148	1651
1	2042	1652
1	1962	1653
1	1908	1654
1	1894	1655
1	1923	1656
1	1999	1657
1	2106	1658
1	2245	1659
1	2404	1660
1	2566	1661
1	2725	1662
1	2871	1663
1	2982	1664
1	3034	1665
1	3019	1666
1	2944	1667
1	2813	1668
1	2667	1669
1	2514	1670
1	2350	1671
1	2197	1672
1	2088	1673
1	2018	1674
1	1989	1675
1	1995	1676
1	2032	1677
1	2097	1678
1	2171	1679
1	1827	1700
1	2001	1701
1	2170	1702
1	2320	1703
1	2431	1704
1	2493	1705
1	2499	1706
1	2458	1707
1	2379	1708
1	2271	1709
1	2155	1710
1	2035	1711
1	1929	1712
1	1848	1713
1	1787	1714
1	1760	1715
1	1774	1716
1	1833	1717
1	1918	1718
1	2026	1719
1	2282	1680
1	2406	1681
1	2516	1682
1	2609	1683
1	2664	1684
1	2671	1685
1	2623	1686
1	2522	1687
1	2378	1688
1	2194	1689
1	2001	1690
1	1817	1691
1	1639	1692
1	1499	1693
1	1394	1694
1	1337	1695
1	1338	1696
1	1402	1697
1	1516	1698
1	1659	1699
1	2160	1720
1	2314	1721
1	2471	1722
1	2600	1723
1	2699	1724
1	2751	1725
1	2745	1726
1	2685	1727
1	2580	1728
1	2449	1729
1	2291	1730
1	2136	1731
1	2009	1732
1	1913	1733
1	1852	1734
1	1834	1735
1	1858	1736
1	1930	1737
1	2027	1738
1	2153	1739
1	2309	1740
1	2488	1741
1	2646	1742
1	2774	1743
1	2874	1744
1	2901	1745
1	2869	1746
1	2782	1747
1	2666	1748
1	2526	1749
1	2371	1750
1	2210	1751
1	2083	1752
1	1984	1753
1	1910	1754
1	1882	1755
1	1895	1756
1	1948	1757
1	2030	1758
1	2156	1759
1	2314	1760
1	2499	1761
1	2657	1762
1	2795	1763
1	2900	1764
1	2955	1765
1	2959	1766
1	2907	1767
1	2815	1768
1	2688	1769
1	2546	1770
1	2397	1771
1	2242	1772
1	2118	1773
1	2029	1774
1	1980	1775
1	1973	1776
1	2003	1777
1	2070	1778
1	2166	1779
1	2302	1780
1	2453	1781
1	2588	1782
1	2719	1783
1	2813	1784
1	2870	1785
1	2870	1786
1	2813	1787
1	2716	1788
1	2587	1789
1	2453	1790
1	2305	1791
1	2174	1792
1	2078	1793
1	2014	1794
1	1991	1795
1	2007	1796
1	2058	1797
1	2143	1798
1	2245	1799
1	2385	1800
1	2540	1801
1	2692	1802
1	2827	1803
1	2921	1804
1	2965	1805
1	2958	1806
1	2887	1807
1	2777	1808
1	2640	1809
1	2494	1810
1	2335	1811
1	2196	1812
1	2088	1813
1	2011	1814
1	1979	1815
1	2004	1816
1	2075	1817
1	2189	1818
1	2342	1819
1	2518	1820
1	2692	1821
1	2854	1822
1	2998	1823
1	3097	1824
1	3130	1825
1	3104	1826
1	3014	1827
1	2872	1828
1	2705	1829
1	2535	1830
1	2372	1831
1	2222	1832
1	2117	1833
1	2048	1834
1	2006	1835
1	2016	1836
1	2078	1837
1	2153	1838
1	2274	1839
1	2423	1840
1	2581	1841
1	2725	1842
1	2846	1843
1	2938	1844
1	2986	1845
1	2983	1846
1	2926	1847
1	2821	1848
1	2688	1849
1	2546	1850
1	2408	1851
1	2284	1852
1	2183	1853
1	2129	1854
1	2116	1855
1	2145	1856
1	2222	1857
1	2341	1858
1	2471	1859
1	2611	1860
1	2773	1861
1	2933	1862
1	3067	1863
1	3130	1864
1	3130	1865
1	3098	1866
1	2994	1867
1	2851	1868
1	2689	1869
1	2525	1870
1	2372	1871
1	2238	1872
1	2137	1873
1	2070	1874
1	2045	1875
1	2061	1876
1	2123	1877
1	2236	1878
1	2369	1879
1	2524	1880
1	2687	1881
1	2848	1882
1	2989	1883
1	3076	1884
1	3098	1885
1	3056	1886
1	2971	1887
1	2843	1888
1	2705	1889
1	2560	1890
1	2430	1891
1	2311	1892
1	2231	1893
1	2170	1894
1	2156	1895
1	2181	1896
1	2245	1897
1	2332	1898
1	2445	1899
1	2568	1900
1	2703	1901
1	2835	1902
1	2956	1903
1	3037	1904
1	3067	1905
1	3050	1906
1	2985	1907
1	2877	1908
1	2748	1909
1	2620	1910
1	2501	1911
1	2388	1912
1	2290	1913
1	2212	1914
1	2174	1915
1	2179	1916
1	2221	1917
1	2305	1918
1	2402	1919
1	2458	1940
1	2602	1941
1	2727	1942
1	2844	1943
1	2916	1944
1	2945	1945
1	2922	1946
1	2844	1947
1	2727	1948
1	2592	1949
1	2458	1950
1	2314	1951
1	2183	1952
1	2077	1953
1	2000	1954
1	1953	1955
1	1948	1956
1	1990	1957
1	2061	1958
1	2163	1959
1	2527	1920
1	2664	1921
1	2799	1922
1	2913	1923
1	2990	1924
1	3024	1925
1	3000	1926
1	2921	1927
1	2800	1928
1	2658	1929
1	2515	1930
1	2365	1931
1	2221	1932
1	2113	1933
1	2043	1934
1	2027	1935
1	2052	1936
1	2102	1937
1	2188	1938
1	2318	1939
1	2301	1960
1	2452	1961
1	2584	1962
1	2706	1963
1	2781	1964
1	2818	1965
1	2808	1966
1	2753	1967
1	2653	1968
1	2535	1969
1	2392	1970
1	2240	1971
1	2106	1972
1	1998	1973
1	1914	1974
1	1861	1975
1	1848	1976
1	1872	1977
1	1935	1978
1	2017	1979
1	2142	1980
1	2299	1981
1	2461	1982
1	2603	1983
1	2720	1984
1	2785	1985
1	2791	1986
1	2735	1987
1	2624	1988
1	2487	1989
1	2304	1990
1	2118	1991
1	1951	1992
1	1809	1993
1	1705	1994
1	1656	1995
1	1663	1996
1	1731	1997
1	1856	1998
1	1999	1999
1	2168	2000
1	2354	2001
1	2516	2002
1	2644	2003
1	2729	2004
1	2763	2005
1	2737	2006
1	2660	2007
1	2541	2008
1	2393	2009
1	2213	2010
1	2039	2011
1	1885	2012
1	1773	2013
1	1710	2014
1	1696	2015
1	1729	2016
1	1803	2017
1	1920	2018
1	2058	2019
1	2220	2020
1	2395	2021
1	2550	2022
1	2685	2023
1	2765	2024
1	2798	2025
1	2762	2026
1	2667	2027
1	2538	2028
1	2380	2029
1	2192	2030
1	2018	2031
1	1866	2032
1	1739	2033
1	1657	2034
1	1615	2035
1	1625	2036
1	1679	2037
1	1765	2038
1	1880	2039
1	2012	2040
1	2165	2041
1	2322	2042
1	2462	2043
1	2563	2044
1	2620	2045
1	2623	2046
1	2577	2047
1	2496	2048
1	2370	2049
1	2237	2050
1	2109	2051
1	1997	2052
1	1896	2053
1	1817	2054
1	1764	2055
1	1753	2056
1	1783	2057
1	1850	2058
1	1948	2059
1	2066	2060
1	2201	2061
1	2336	2062
1	2451	2063
1	2523	2064
1	2561	2065
1	2555	2066
1	2509	2067
1	2417	2068
1	2284	2069
1	2139	2070
1	2009	2071
1	1900	2072
1	1827	2073
1	1764	2074
1	1736	2075
1	1738	2076
1	1780	2077
1	1859	2078
1	1964	2079
1	2096	2080
1	2247	2081
1	2392	2082
1	2513	2083
1	2580	2084
1	2619	2085
1	2606	2086
1	2558	2087
1	2477	2088
1	2342	2089
1	2188	2090
1	2044	2091
1	1917	2092
1	1817	2093
1	1740	2094
1	1703	2095
1	1699	2096
1	1734	2097
1	1803	2098
1	1898	2099
1	2027	2100
1	2174	2101
1	2318	2102
1	2453	2103
1	2535	2104
1	2572	2105
1	2558	2106
1	2499	2107
1	2393	2108
1	2262	2109
1	2117	2110
1	1981	2111
1	1870	2112
1	1783	2113
1	1728	2114
1	1712	2115
1	1739	2116
1	1803	2117
1	1903	2118
1	2013	2119
1	2144	2120
1	2294	2121
1	2436	2122
1	2542	2123
1	2612	2124
1	2647	2125
1	2638	2126
1	2581	2127
1	2496	2128
1	2364	2129
1	2214	2130
1	2067	2131
1	1937	2132
1	1834	2133
1	1754	2134
1	1705	2135
1	1705	2136
1	1743	2137
1	1801	2138
1	1898	2139
1	2026	2140
1	2184	2141
1	2353	2142
1	2489	2143
1	2576	2144
1	2621	2145
1	2602	2146
1	2535	2147
1	2427	2148
1	2275	2149
1	2112	2150
1	1952	2151
1	1815	2152
1	1695	2153
1	1622	2154
1	1589	2155
1	1595	2156
1	1636	2157
1	1713	2158
1	1823	2159
1	1961	2160
1	2125	2161
1	2288	2162
1	2419	2163
1	2506	2164
1	2532	2165
1	2509	2166
1	2426	2167
1	2304	2168
1	2162	2169
1	2017	2170
1	1874	2171
1	1743	2172
1	1638	2173
1	1561	2174
1	1527	2175
1	1529	2176
1	1574	2177
1	1660	2178
1	1772	2179
1	1914	2180
1	2066	2181
1	2214	2182
1	2349	2183
1	2446	2184
1	2499	2185
1	2496	2186
1	2431	2187
1	2309	2188
1	2143	2189
1	1980	2190
1	1828	2191
1	1685	2192
1	1567	2193
1	1477	2194
1	1433	2195
1	1436	2196
1	1481	2197
1	1569	2198
1	1688	2199
1	1843	2200
1	2008	2201
1	2170	2202
1	2327	2203
1	2441	2204
1	2509	2205
1	2519	2206
1	2479	2207
1	2375	2208
1	2215	2209
1	2039	2210
1	1856	2211
1	1686	2212
1	1545	2213
1	1445	2214
1	1381	2215
1	1371	2216
1	1418	2217
1	1503	2218
1	1613	2219
1	1765	2220
1	1943	2221
1	2106	2222
1	2253	2223
1	2339	2224
1	2367	2225
1	2341	2226
1	2262	2227
1	2139	2228
1	2000	2229
1	1847	2230
1	1686	2231
1	1538	2232
1	1417	2233
1	1328	2234
1	1293	2235
1	1306	2236
1	1367	2237
1	1458	2238
1	1580	2239
1	1708	2240
1	1870	2241
1	2011	2242
1	2133	2243
1	2210	2244
1	2253	2245
1	2236	2246
1	2168	2247
1	2064	2248
1	1934	2249
1	1791	2250
1	1648	2251
1	1529	2252
1	1442	2253
1	1382	2254
1	1358	2255
1	1362	2256
1	1411	2257
1	1485	2258
1	1595	2259
1	1738	2260
1	1900	2261
1	2048	2262
1	2165	2263
1	2236	2264
1	2262	2265
1	2220	2266
1	2131	2267
1	1998	2268
1	1855	2269
1	1693	2270
1	1544	2271
1	1416	2272
1	1304	2273
1	1235	2274
1	1210	2275
1	1230	2276
1	1294	2277
1	1398	2278
1	1513	2279
1	1546	2300
1	1700	2301
1	1848	2302
1	1968	2303
1	2047	2304
1	2080	2305
1	2066	2306
1	1995	2307
1	1883	2308
1	1734	2309
1	1581	2310
1	1434	2311
1	1299	2312
1	1209	2313
1	1152	2314
1	1138	2315
1	1174	2316
1	1245	2317
1	1346	2318
1	1464	2319
1	1664	2280
1	1844	2281
1	2011	2282
1	2153	2283
1	2250	2284
1	2288	2285
1	2271	2286
1	2188	2287
1	2070	2288
1	1915	2289
1	1733	2290
1	1549	2291
1	1375	2292
1	1233	2293
1	1132	2294
1	1084	2295
1	1087	2296
1	1149	2297
1	1261	2298
1	1397	2299
1	1605	2320
1	1752	2321
1	1900	2322
1	2025	2323
1	2097	2324
1	2120	2325
1	2097	2326
1	2023	2327
1	1917	2328
1	1778	2329
1	1634	2330
1	1490	2331
1	1350	2332
1	1241	2333
1	1162	2334
1	1118	2335
1	1116	2336
1	1152	2337
1	1219	2338
1	1324	2339
1	1461	2340
1	1607	2341
1	1755	2342
1	1884	2343
1	1975	2344
1	2022	2345
1	2019	2346
1	1975	2347
1	1890	2348
1	1768	2349
1	1630	2350
1	1490	2351
1	1367	2352
1	1263	2353
1	1179	2354
1	1129	2355
1	1117	2356
1	1155	2357
1	1238	2358
1	1357	2359
1	1503	2360
1	1660	2361
1	1817	2362
1	1949	2363
1	2039	2364
1	2079	2365
1	2066	2366
1	1992	2367
1	1868	2368
1	1700	2369
1	1531	2370
1	1368	2371
1	1228	2372
1	1122	2373
1	1046	2374
1	1005	2375
1	1001	2376
1	1044	2377
1	1125	2378
1	1247	2379
1	1402	2380
1	1562	2381
1	1710	2382
1	1827	2383
1	1895	2384
1	1919	2385
1	1893	2386
1	1817	2387
1	1707	2388
1	1571	2389
1	1422	2390
1	1271	2391
1	1143	2392
1	1042	2393
1	974	2394
1	927	2395
1	927	2396
1	977	2397
1	1061	2398
1	1177	2399
1	1319	2400
1	1476	2401
1	1620	2402
1	1747	2403
1	1841	2404
1	1881	2405
1	1872	2406
1	1818	2407
1	1718	2408
1	1589	2409
1	1437	2410
1	1279	2411
1	1140	2412
1	1031	2413
1	951	2414
1	923	2415
1	940	2416
1	1003	2417
1	1099	2418
1	1216	2419
1	1362	2420
1	1521	2421
1	1665	2422
1	1783	2423
1	1862	2424
1	1888	2425
1	1861	2426
1	1783	2427
1	1667	2428
1	1520	2429
1	1356	2430
1	1197	2431
1	1057	2432
1	948	2433
1	885	2434
1	867	2435
1	892	2436
1	970	2437
1	1068	2438
1	1196	2439
1	1328	2460
1	1504	2461
1	1670	2462
1	1818	2463
1	1931	2464
1	1985	2465
1	1981	2466
1	1920	2467
1	1809	2468
1	1670	2469
1	1521	2470
1	1373	2471
1	1242	2472
1	1132	2473
1	1044	2474
1	998	2475
1	992	2476
1	1037	2477
1	1136	2478
1	1260	2479
1	1344	2440
1	1503	2441
1	1634	2442
1	1743	2443
1	1817	2444
1	1841	2445
1	1814	2446
1	1731	2447
1	1607	2448
1	1450	2449
1	1285	2450
1	1139	2451
1	1021	2452
1	918	2453
1	861	2454
1	848	2455
1	874	2456
1	944	2457
1	1047	2458
1	1175	2459
1	1411	2480
1	1573	2481
1	1731	2482
1	1875	2483
1	1980	2484
1	2030	2485
1	2022	2486
1	1949	2487
1	1830	2488
1	1661	2489
1	1485	2490
1	1306	2491
1	1143	2492
1	1010	2493
1	911	2494
1	859	2495
1	855	2496
1	889	2497
1	953	2498
1	1034	2499
1	1151	2500
1	1267	2501
1	1372	2502
1	1443	2503
1	1466	2504
1	1453	2505
1	1398	2506
1	1301	2507
1	1187	2508
1	1044	2509
1	878	2510
1	719	2511
1	586	2512
1	481	2513
1	427	2514
1	415	2515
1	454	2516
1	535	2517
1	665	2518
1	824	2519
1	1019	2520
1	1233	2521
1	1435	2522
1	1600	2523
1	1711	2524
1	1765	2525
1	1764	2526
1	1700	2527
1	1589	2528
1	1445	2529
1	1281	2530
1	1123	2531
1	979	2532
1	855	2533
1	768	2534
1	718	2535
1	719	2536
1	774	2537
1	874	2538
1	1016	2539
1	1311	2560
1	1482	2561
1	1634	2562
1	1757	2563
1	1837	2564
1	1869	2565
1	1842	2566
1	1752	2567
1	1616	2568
1	1459	2569
1	1287	2570
1	1123	2571
1	982	2572
1	877	2573
1	817	2574
1	796	2575
1	816	2576
1	873	2577
1	964	2578
1	1080	2579
1	1184	2540
1	1363	2541
1	1540	2542
1	1674	2543
1	1753	2544
1	1779	2545
1	1754	2546
1	1677	2547
1	1563	2548
1	1431	2549
1	1290	2550
1	1150	2551
1	1024	2552
1	915	2553
1	839	2554
1	808	2555
1	826	2556
1	891	2557
1	1004	2558
1	1140	2559
1	1211	2580
1	1353	2581
1	1499	2582
1	1633	2583
1	1729	2584
1	1786	2585
1	1791	2586
1	1752	2587
1	1665	2588
1	1544	2589
1	1397	2590
1	1237	2591
1	1089	2592
1	965	2593
1	877	2594
1	823	2595
1	809	2596
1	844	2597
1	918	2598
1	1024	2599
1	1166	2600
1	1324	2601
1	1483	2602
1	1611	2603
1	1710	2604
1	1760	2605
1	1760	2606
1	1711	2607
1	1616	2608
1	1484	2609
1	1336	2610
1	1190	2611
1	1071	2612
1	996	2613
1	954	2614
1	935	2615
1	944	2616
1	990	2617
1	1060	2618
1	1159	2619
1	1305	2640
1	1469	2641
1	1607	2642
1	1728	2643
1	1814	2644
1	1844	2645
1	1830	2646
1	1764	2647
1	1654	2648
1	1508	2649
1	1346	2650
1	1190	2651
1	1050	2652
1	936	2653
1	863	2654
1	831	2655
1	840	2656
1	900	2657
1	1005	2658
1	1136	2659
1	1269	2620
1	1395	2621
1	1510	2622
1	1603	2623
1	1656	2624
1	1664	2625
1	1630	2626
1	1553	2627
1	1448	2628
1	1314	2629
1	1175	2630
1	1044	2631
1	927	2632
1	848	2633
1	801	2634
1	796	2635
1	823	2636
1	900	2637
1	1016	2638
1	1154	2639
1	1288	2660
1	1453	2661
1	1599	2662
1	1721	2663
1	1801	2664
1	1827	2665
1	1782	2666
1	1688	2667
1	1554	2668
1	1384	2669
1	1215	2670
1	1058	2671
1	915	2672
1	821	2673
1	759	2674
1	743	2675
1	772	2676
1	848	2677
1	957	2678
1	1092	2679
1	1242	2680
1	1410	2681
1	1561	2682
1	1692	2683
1	1782	2684
1	1831	2685
1	1818	2686
1	1740	2687
1	1629	2688
1	1485	2689
1	1325	2690
1	1175	2691
1	1040	2692
1	927	2693
1	861	2694
1	832	2695
1	839	2696
1	887	2697
1	977	2698
1	1094	2699
1	1248	2700
1	1424	2701
1	1584	2702
1	1729	2703
1	1833	2704
1	1881	2705
1	1873	2706
1	1809	2707
1	1688	2708
1	1546	2709
1	1397	2710
1	1251	2711
1	1134	2712
1	1042	2713
1	981	2714
1	961	2715
1	990	2716
1	1057	2717
1	1152	2718
1	1268	2719
1	1404	2720
1	1544	2721
1	1675	2722
1	1782	2723
1	1856	2724
1	1877	2725
1	1841	2726
1	1750	2727
1	1623	2728
1	1462	2729
1	1292	2730
1	1131	2731
1	991	2732
1	874	2733
1	798	2734
1	765	2735
1	774	2736
1	839	2737
1	932	2738
1	1066	2739
1	1220	2740
1	1404	2741
1	1554	2742
1	1686	2743
1	1777	2744
1	1819	2745
1	1810	2746
1	1743	2747
1	1639	2748
1	1505	2749
1	1359	2750
1	1216	2751
1	1098	2752
1	996	2753
1	903	2754
1	844	2755
1	822	2756
1	852	2757
1	927	2758
1	1036	2759
1	1171	2760
1	1319	2761
1	1466	2762
1	1585	2763
1	1681	2764
1	1715	2765
1	1697	2766
1	1625	2767
1	1502	2768
1	1350	2769
1	1199	2770
1	1053	2771
1	927	2772
1	838	2773
1	792	2774
1	781	2775
1	806	2776
1	869	2777
1	963	2778
1	1083	2779
1	1215	2780
1	1355	2781
1	1489	2782
1	1589	2783
1	1646	2784
1	1654	2785
1	1607	2786
1	1512	2787
1	1377	2788
1	1224	2789
1	1058	2790
1	898	2791
1	760	2792
1	663	2793
1	610	2794
1	598	2795
1	631	2796
1	697	2797
1	796	2798
1	918	2799
1	1068	2800
1	1215	2801
1	1355	2802
1	1472	2803
1	1537	2804
1	1555	2805
1	1521	2806
1	1433	2807
1	1312	2808
1	1165	2809
1	1017	2810
1	867	2811
1	745	2812
1	657	2813
1	612	2814
1	602	2815
1	630	2816
1	696	2817
1	801	2818
1	931	2819
1	1089	2820
1	1256	2821
1	1422	2822
1	1554	2823
1	1645	2824
1	1681	2825
1	1660	2826
1	1584	2827
1	1469	2828
1	1325	2829
1	1170	2830
1	1016	2831
1	875	2832
1	764	2833
1	677	2834
1	631	2835
1	627	2836
1	675	2837
1	755	2838
1	874	2839
1	1019	2840
1	1189	2841
1	1366	2842
1	1520	2843
1	1623	2844
1	1668	2845
1	1652	2846
1	1581	2847
1	1465	2848
1	1314	2849
1	1148	2850
1	990	2851
1	843	2852
1	738	2853
1	661	2854
1	627	2855
1	627	2856
1	664	2857
1	738	2858
1	846	2859
1	995	2860
1	1165	2861
1	1335	2862
1	1486	2863
1	1581	2864
1	1626	2865
1	1609	2866
1	1529	2867
1	1398	2868
1	1238	2869
1	1058	2870
1	885	2871
1	743	2872
1	636	2873
1	572	2874
1	553	2875
1	575	2876
1	639	2877
1	745	2878
1	878	2879
1	1053	2880
1	1239	2881
1	1427	2882
1	1581	2883
1	1678	2884
1	1710	2885
1	1685	2886
1	1608	2887
1	1490	2888
1	1334	2889
1	1165	2890
1	994	2891
1	833	2892
1	700	2893
1	602	2894
1	559	2895
1	561	2896
1	627	2897
1	735	2898
1	870	2899
1	1032	2900
1	1211	2901
1	1376	2902
1	1520	2903
1	1609	2904
1	1647	2905
1	1620	2906
1	1542	2907
1	1428	2908
1	1286	2909
1	1144	2910
1	1016	2911
1	900	2912
1	820	2913
1	780	2914
1	767	2915
1	788	2916
1	836	2917
1	906	2918
1	1006	2919
1	1132	2920
1	1267	2921
1	1400	2922
1	1512	2923
1	1584	2924
1	1623	2925
1	1607	2926
1	1530	2927
1	1419	2928
1	1263	2929
1	1085	2930
1	912	2931
1	765	2932
1	662	2933
1	599	2934
1	585	2935
1	603	2936
1	675	2937
1	787	2938
1	927	2939
1	1093	2940
1	1265	2941
1	1427	2942
1	1559	2943
1	1638	2944
1	1662	2945
1	1634	2946
1	1561	2947
1	1449	2948
1	1299	2949
1	1135	2950
1	970	2951
1	822	2952
1	703	2953
1	612	2954
1	560	2955
1	553	2956
1	599	2957
1	695	2958
1	828	2959
1	991	2960
1	1164	2961
1	1333	2962
1	1481	2963
1	1582	2964
1	1633	2965
1	1625	2966
1	1562	2967
1	1462	2968
1	1327	2969
1	1193	2970
1	1067	2971
1	949	2972
1	867	2973
1	819	2974
1	809	2975
1	834	2976
1	890	2977
1	962	2978
1	1049	2979
1	1157	2980
1	1278	2981
1	1397	2982
1	1490	2983
1	1542	2984
1	1557	2985
1	1526	2986
1	1438	2987
1	1318	2988
1	1163	2989
1	1004	2990
1	848	2991
1	725	2992
1	639	2993
1	599	2994
1	599	2995
1	637	2996
1	711	2997
1	815	2998
1	941	2999
1	1105	3000
1	1282	3001
1	1458	3002
1	1604	3003
1	1703	3004
1	1751	3005
1	1738	3006
1	1669	3007
1	1554	3008
1	1410	3009
1	1242	3010
1	1080	3011
1	922	3012
1	795	3013
1	692	3014
1	630	3015
1	607	3016
1	626	3017
1	698	3018
1	815	3019
1	971	3020
1	1149	3021
1	1330	3022
1	1490	3023
1	1610	3024
1	1672	3025
1	1665	3026
1	1598	3027
1	1476	3028
1	1310	3029
1	1136	3030
1	972	3031
1	823	3032
1	717	3033
1	652	3034
1	636	3035
1	658	3036
1	724	3037
1	822	3038
1	941	3039
1	1101	3040
1	1284	3041
1	1450	3042
1	1582	3043
1	1670	3044
1	1702	3045
1	1677	3046
1	1590	3047
1	1463	3048
1	1293	3049
1	1123	3050
1	953	3051
1	809	3052
1	702	3053
1	639	3054
1	621	3055
1	643	3056
1	705	3057
1	798	3058
1	921	3059
1	1071	3060
1	1242	3061
1	1416	3062
1	1556	3063
1	1660	3064
1	1699	3065
1	1675	3066
1	1599	3067
1	1479	3068
1	1322	3069
1	1164	3070
1	1022	3071
1	901	3072
1	813	3073
1	747	3074
1	714	3075
1	717	3076
1	756	3077
1	835	3078
1	939	3079
1	1076	3080
1	1224	3081
1	1369	3082
1	1498	3083
1	1584	3084
1	1628	3085
1	1612	3086
1	1544	3087
1	1437	3088
1	1304	3089
1	1173	3090
1	1043	3091
1	919	3092
1	823	3093
1	752	3094
1	706	3095
1	706	3096
1	743	3097
1	822	3098
1	937	3099
1	1094	3100
1	1267	3101
1	1441	3102
1	1582	3103
1	1668	3104
1	1697	3105
1	1661	3106
1	1567	3107
1	1447	3108
1	1288	3109
1	1129	3110
1	980	3111
1	855	3112
1	769	3113
1	721	3114
1	717	3115
1	752	3116
1	831	3117
1	948	3118
1	1086	3119
1	1065	3140
1	1242	3141
1	1412	3142
1	1548	3143
1	1644	3144
1	1686	3145
1	1662	3146
1	1589	3147
1	1476	3148
1	1334	3149
1	1190	3150
1	1056	3151
1	926	3152
1	835	3153
1	775	3154
1	757	3155
1	782	3156
1	839	3157
1	927	3158
1	1046	3159
1	1252	3120
1	1424	3121
1	1572	3122
1	1697	3123
1	1773	3124
1	1787	3125
1	1744	3126
1	1657	3127
1	1535	3128
1	1384	3129
1	1218	3130
1	1052	3131
1	900	3132
1	783	3133
1	700	3134
1	657	3135
1	656	3136
1	700	3137
1	781	3138
1	909	3139
1	1190	3160
1	1346	3161
1	1497	3162
1	1615	3163
1	1688	3164
1	1724	3165
1	1708	3166
1	1635	3167
1	1526	3168
1	1392	3169
1	1238	3170
1	1089	3171
1	954	3172
1	859	3173
1	796	3174
1	772	3175
1	791	3176
1	847	3177
1	939	3178
1	1060	3179
1	1211	3180
1	1376	3181
1	1543	3182
1	1699	3183
1	1814	3184
1	1862	3185
1	1839	3186
1	1744	3187
1	1608	3188
1	1450	3189
1	1275	3190
1	1107	3191
1	954	3192
1	831	3193
1	751	3194
1	719	3195
1	731	3196
1	793	3197
1	903	3198
1	1049	3199
1	1219	3200
1	1405	3201
1	1580	3202
1	1719	3203
1	1817	3204
1	1854	3205
1	1827	3206
1	1740	3207
1	1618	3208
1	1462	3209
1	1303	3210
1	1155	3211
1	1018	3212
1	905	3213
1	830	3214
1	793	3215
1	799	3216
1	861	3217
1	963	3218
1	1099	3219
1	1263	3240
1	1428	3241
1	1577	3242
1	1704	3243
1	1788	3244
1	1828	3245
1	1809	3246
1	1739	3247
1	1631	3248
1	1495	3249
1	1345	3250
1	1194	3251
1	1058	3252
1	941	3253
1	862	3254
1	837	3255
1	859	3256
1	915	3257
1	1013	3258
1	1125	3259
1	1256	3240
1	1426	3241
1	1581	3242
1	1710	3243
1	1785	3244
1	1820	3245
1	1802	3246
1	1734	3247
1	1634	3248
1	1494	3249
1	1332	3250
1	1173	3251
1	1030	3252
1	909	3253
1	831	3254
1	805	3255
1	819	3256
1	875	3257
1	979	3258
1	1107	3259
1	1267	3260
1	1424	3261
1	1573	3262
1	1701	3263
1	1796	3264
1	1852	3265
1	1849	3266
1	1787	3267
1	1681	3268
1	1533	3269
1	1371	3270
1	1207	3271
1	1058	3272
1	939	3273
1	861	3274
1	826	3275
1	834	3276
1	889	3277
1	989	3278
1	1116	3279
1	1279	3280
1	1455	3281
1	1622	3282
1	1764	3283
1	1856	3284
1	1895	3285
1	1868	3286
1	1783	3287
1	1674	3288
1	1533	3289
1	1376	3290
1	1230	3291
1	1112	3292
1	1024	3293
1	949	3294
1	898	3295
1	878	3296
1	900	3297
1	959	3298
1	1055	3299
1	1184	3300
1	1333	3301
1	1485	3302
1	1631	3303
1	1730	3304
1	1782	3305
1	1780	3306
1	1729	3307
1	1634	3308
1	1505	3309
1	1364	3310
1	1232	3311
1	1113	3312
1	1022	3313
1	965	3314
1	953	3315
1	991	3316
1	1061	3317
1	1164	3318
1	1283	3319
1	1431	3320
1	1590	3321
1	1746	3322
1	1887	3323
1	1990	3324
1	2052	3325
1	2071	3326
1	2041	3327
1	1964	3328
1	1843	3329
1	1700	3330
1	1548	3331
1	1398	3332
1	1278	3333
1	1176	3334
1	1116	3335
1	1089	3336
1	1112	3337
1	1168	3338
1	1260	3339
1	1382	3340
1	1529	3341
1	1662	3342
1	1772	3343
1	1847	3344
1	1875	3345
1	1863	3346
1	1803	3347
1	1714	3348
1	1594	3349
1	1463	3350
1	1320	3351
1	1190	3352
1	1065	3353
1	947	3354
1	851	3355
1	788	3356
1	769	3357
1	795	3358
1	855	3359
1	955	3360
1	1086	3361
1	1215	3362
1	1344	3363
1	1438	3364
1	1479	3365
1	1474	3366
1	1421	3367
1	1323	3368
1	1204	3369
1	1071	3370
1	952	3371
1	866	3372
1	814	3373
1	788	3374
1	791	3375
1	824	3376
1	896	3377
1	1009	3378
1	1134	3379
1	1273	3380
1	1429	3381
1	1571	3382
1	1686	3383
1	1760	3384
1	1791	3385
1	1764	3386
1	1697	3387
1	1589	3388
1	1450	3389
1	1308	3390
1	1179	3391
1	1067	3392
1	987	3393
1	927	3394
1	915	3395
1	936	3396
1	1006	3397
1	1107	3398
1	1238	3399
1	1409	3400
1	1593	3401
1	1767	3402
1	1922	3403
1	2026	3404
1	2086	3405
1	2088	3406
1	2026	3407
1	1922	3408
1	1752	3409
1	1564	3410
1	1379	3411
1	1215	3412
1	1085	3413
1	998	3414
1	956	3415
1	975	3416
1	1037	3417
1	1144	3418
1	1282	3419
1	1373	3440
1	1566	3441
1	1754	3442
1	1895	3443
1	2000	3444
1	2057	3445
1	2057	3446
1	2002	3447
1	1897	3448
1	1747	3449
1	1590	3450
1	1437	3451
1	1297	3452
1	1202	3453
1	1140	3454
1	1118	3455
1	1124	3456
1	1152	3457
1	1209	3458
1	1298	3459
1	1454	3420
1	1638	3421
1	1803	3422
1	1948	3423
1	2039	3424
1	2073	3425
1	2052	3426
1	1975	3427
1	1855	3428
1	1703	3429
1	1547	3430
1	1395	3431
1	1255	3432
1	1142	3433
1	1057	3434
1	1005	3435
1	993	3436
1	1024	3437
1	1095	3438
1	1222	3439
1	1428	3460
1	1571	3461
1	1712	3462
1	1837	3463
1	1917	3464
1	1958	3465
1	1948	3466
1	1878	3467
1	1769	3468
1	1647	3469
1	1503	3470
1	1371	3471
1	1264	3472
1	1179	3473
1	1129	3474
1	1103	3475
1	1112	3476
1	1159	3477
1	1230	3478
1	1330	3479
1	1462	3480
1	1611	3481
1	1765	3482
1	1919	3483
1	2024	3484
1	2079	3485
1	2075	3486
1	2012	3487
1	1903	3488
1	1764	3489
1	1618	3490
1	1477	3491
1	1350	3492
1	1244	3493
1	1162	3494
1	1127	3495
1	1138	3496
1	1196	3497
1	1305	3498
1	1428	3499
1	1569	3500
1	1717	3501
1	1862	3502
1	1977	3503
1	2052	3504
1	2084	3505
1	2075	3506
1	2016	3507
1	1926	3508
1	1791	3509
1	1651	3510
1	1501	3511
1	1351	3512
1	1241	3513
1	1177	3514
1	1154	3515
1	1175	3516
1	1241	3517
1	1333	3518
1	1451	3519
1	1586	3520
1	1729	3521
1	1865	3522
1	1973	3523
1	2037	3524
1	2060	3525
1	2037	3526
1	1965	3527
1	1869	3528
1	1739	3529
1	1599	3530
1	1459	3531
1	1325	3532
1	1215	3533
1	1134	3534
1	1096	3535
1	1100	3536
1	1155	3537
1	1256	3538
1	1398	3539
1	1557	3540
1	1739	3541
1	1920	3542
1	2066	3543
1	2163	3544
1	2207	3545
1	2184	3546
1	2120	3547
1	2006	3548
1	1862	3549
1	1700	3550
1	1549	3551
1	1416	3552
1	1310	3553
1	1242	3554
1	1223	3555
1	1240	3556
1	1293	3557
1	1391	3558
1	1521	3559
1	1682	3560
1	1857	3561
1	2024	3562
1	2163	3563
1	2260	3564
1	2294	3565
1	2278	3566
1	2207	3567
1	2094	3568
1	1940	3569
1	1766	3570
1	1602	3571
1	1455	3572
1	1341	3573
1	1262	3574
1	1224	3575
1	1230	3576
1	1284	3577
1	1368	3578
1	1473	3579
1	1602	3580
1	1750	3581
1	1895	3582
1	2011	3583
1	2084	3584
1	2129	3585
1	2118	3586
1	2059	3587
1	1971	3588
1	1849	3589
1	1713	3590
1	1583	3591
1	1469	3592
1	1369	3593
1	1297	3594
1	1257	3595
1	1251	3596
1	1294	3597
1	1373	3598
1	1490	3599
1	1631	3600
1	1773	3601
1	1909	3602
1	2031	3603
1	2107	3604
1	2131	3605
1	2099	3606
1	2011	3607
1	1888	3608
1	1740	3609
1	1587	3610
1	1437	3611
1	1293	3612
1	1177	3613
1	1089	3614
1	1044	3615
1	1047	3616
1	1103	3617
1	1211	3618
1	1356	3619
1	1535	3620
1	1724	3621
1	1896	3622
1	2043	3623
1	2144	3624
1	2194	3625
1	2189	3626
1	2128	3627
1	2015	3628
1	1859	3629
1	1682	3630
1	1499	3631
1	1325	3632
1	1190	3633
1	1084	3634
1	1029	3635
1	1016	3636
1	1055	3637
1	1116	3638
1	1220	3639
1	1362	3640
1	1529	3641
1	1680	3642
1	1818	3643
1	1919	3644
1	1970	3645
1	1966	3646
1	1917	3647
1	1821	3648
1	1683	3649
1	1533	3650
1	1384	3651
1	1267	3652
1	1177	3653
1	1123	3654
1	1106	3655
1	1117	3656
1	1161	3657
1	1238	3658
1	1345	3659
1	1481	3660
1	1625	3661
1	1759	3662
1	1867	3663
1	1935	3664
1	1949	3665
1	1922	3666
1	1843	3667
1	1716	3668
1	1569	3669
1	1409	3670
1	1248	3671
1	1110	3672
1	1003	3673
1	919	3674
1	879	3675
1	893	3676
1	960	3677
1	1088	3678
1	1247	3679
1	1440	3680
1	1632	3681
1	1803	3682
1	1944	3683
1	2030	3684
1	2063	3685
1	2031	3686
1	1953	3687
1	1836	3688
1	1678	3689
1	1516	3690
1	1350	3691
1	1209	3692
1	1098	3693
1	1018	3694
1	965	3695
1	961	3696
1	1015	3697
1	1101	3698
1	1225	3699
1	1383	3700
1	1556	3701
1	1724	3702
1	1871	3703
1	1974	3704
1	2041	3705
1	2052	3706
1	2007	3707
1	1917	3708
1	1769	3709
1	1600	3710
1	1425	3711
1	1260	3712
1	1123	3713
1	1026	3714
1	977	3715
1	979	3716
1	1043	3717
1	1158	3718
1	1305	3719
1	1489	3720
1	1674	3721
1	1846	3722
1	1974	3723
1	2057	3724
1	2079	3725
1	2038	3726
1	1943	3727
1	1800	3728
1	1639	3729
1	1476	3730
1	1325	3731
1	1205	3732
1	1114	3733
1	1059	3734
1	1045	3735
1	1062	3736
1	1119	3737
1	1202	3738
1	1334	3739
1	1478	3740
1	1647	3741
1	1827	3742
1	1949	3743
1	2047	3744
1	2097	3745
1	2091	3746
1	2037	3747
1	1944	3748
1	1801	3749
1	1649	3750
1	1490	3751
1	1332	3752
1	1202	3753
1	1112	3754
1	1070	3755
1	1075	3756
1	1120	3757
1	1199	3758
1	1312	3759
1	1467	3760
1	1639	3761
1	1809	3762
1	1948	3763
1	2043	3764
1	2093	3765
1	2093	3766
1	2037	3767
1	1931	3768
1	1800	3769
1	1636	3770
1	1472	3771
1	1318	3772
1	1192	3773
1	1104	3774
1	1058	3775
1	1070	3776
1	1129	3777
1	1226	3778
1	1346	3779
1	1508	3780
1	1680	3781
1	1851	3782
1	2002	3783
1	2106	3784
1	2160	3785
1	2152	3786
1	2083	3787
1	1974	3788
1	1829	3789
1	1664	3790
1	1505	3791
1	1364	3792
1	1254	3793
1	1174	3794
1	1137	3795
1	1154	3796
1	1212	3797
1	1307	3798
1	1427	3799
1	1571	3800
1	1729	3801
1	1883	3802
1	2009	3803
1	2089	3804
1	2121	3805
1	2096	3806
1	2014	3807
1	1896	3808
1	1744	3809
1	1594	3810
1	1451	3811
1	1323	3812
1	1217	3813
1	1152	3814
1	1122	3815
1	1135	3816
1	1188	3817
1	1275	3818
1	1394	3819
1	1530	3820
1	1685	3821
1	1838	3822
1	1971	3823
1	2067	3824
1	2125	3825
1	2131	3826
1	2076	3827
1	1972	3828
1	1827	3829
1	1661	3830
1	1504	3831
1	1364	3832
1	1253	3833
1	1177	3834
1	1148	3835
1	1161	3836
1	1232	3837
1	1346	3838
1	1501	3839
1	1672	3840
1	1843	3841
1	1995	3842
1	2122	3843
1	2194	3844
1	2199	3845
1	2139	3846
1	2030	3847
1	1881	3848
1	1703	3849
1	1529	3850
1	1359	3851
1	1224	3852
1	1122	3853
1	1061	3854
1	1052	3855
1	1094	3856
1	1186	3857
1	1323	3858
1	1503	3859
1	1711	3860
1	1913	3861
1	2076	3862
1	2190	3863
1	2259	3864
1	2268	3865
1	2222	3866
1	2132	3867
1	2012	3868
1	1868	3869
1	1716	3870
1	1575	3871
1	1448	3872
1	1343	3873
1	1261	3874
1	1214	3875
1	1207	3876
1	1240	3877
1	1296	3878
1	1384	3879
1	1508	3880
1	1649	3881
1	1791	3882
1	1921	3883
1	2003	3884
1	2048	3885
1	2036	3886
1	1973	3887
1	1872	3888
1	1744	3889
1	1607	3890
1	1477	3891
1	1356	3892
1	1261	3893
1	1197	3894
1	1170	3895
1	1175	3896
1	1227	3897
1	1317	3898
1	1439	3899
1	1591	3900
1	1755	3901
1	1919	3902
1	2052	3903
1	2142	3904
1	2181	3905
1	2170	3906
1	2107	3907
1	2006	3908
1	1872	3909
1	1714	3910
1	1555	3911
1	1413	3912
1	1296	3913
1	1220	3914
1	1193	3915
1	1206	3916
1	1260	3917
1	1350	3918
1	1479	3919
1	1626	3920
1	1785	3921
1	1935	3922
1	2061	3923
1	2147	3924
1	2197	3925
1	2191	3926
1	2131	3927
1	2029	3928
1	1893	3929
1	1746	3930
1	1615	3931
1	1508	3932
1	1435	3933
1	1373	3934
1	1346	3935
1	1340	3936
1	1380	3937
1	1442	3938
1	1530	3939
1	1562	3960
1	1721	3961
1	1872	3962
1	1998	3963
1	2086	3964
1	2127	3965
1	2109	3966
1	2052	3967
1	1956	3968
1	1841	3969
1	1710	3970
1	1587	3971
1	1478	3972
1	1384	3973
1	1319	3974
1	1293	3975
1	1319	3976
1	1384	3977
1	1491	3978
1	1617	3979
1	1647	3940
1	1777	3941
1	1901	3942
1	2009	3943
1	2079	3944
1	2108	3945
1	2087	3946
1	2026	3947
1	1927	3948
1	1809	3949
1	1668	3950
1	1526	3951
1	1396	3952
1	1279	3953
1	1197	3954
1	1153	3955
1	1157	3956
1	1207	3957
1	1294	3958
1	1419	3959
1	1764	3980
1	1922	3981
1	2060	3982
1	2163	3983
1	2217	3984
1	2232	3985
1	2189	3986
1	2110	3987
1	2000	3988
1	1856	3989
1	1714	3990
1	1585	3991
1	1476	3992
1	1399	3993
1	1355	3994
1	1357	3995
1	1384	3996
1	1459	3997
1	1555	3998
1	1669	3999
1	1803	4000
1	1949	4001
1	2079	4002
1	2185	4003
1	2246	4004
1	2260	4005
1	2222	4006
1	2153	4006
1	2060	4008
1	1935	4009
1	1788	4010
1	1639	4011
1	1513	4012
1	1420	4013
1	1359	4014
1	1338	4014
1	1346	4016
1	1384	4017
1	1456	4018
1	1551	4019
1	1682	4020
1	1829	4021
1	1971	4022
1	2091	4022
1	2181	4024
1	2219	4025
1	2202	4026
1	2133	4027
1	2025	4028
1	1892	4029
1	1742	4030
1	1605	4030
1	1490	4032
1	1405	4033
1	1346	4034
1	1330	4035
1	1346	4036
1	1398	4037
1	1481	4038
1	1602	4038
1	1746	4040
1	1914	4041
1	2070	4042
1	2183	4043
1	2265	4044
1	2300	4045
1	2281	4046
1	2212	4046
1	2115	4048
1	1981	4049
1	1843	4050
1	1696	4051
1	1557	4052
1	1443	4053
1	1357	4054
1	1319	4054
1	1323	4056
1	1364	4057
1	1441	4058
1	1544	4059
1	1677	4060
1	1825	4061
1	1973	4062
1	2094	4062
1	2170	4064
1	2210	4065
1	2197	4066
1	2133	4067
1	2026	4068
1	1896	4069
1	1744	4070
1	1605	4070
1	1481	4072
1	1384	4073
1	1330	4074
1	1311	4075
1	1332	4076
1	1399	4077
1	1502	4078
1	1629	4078
1	1790	4080
1	1959	4081
1	2109	4082
1	2237	4083
1	2314	4084
1	2333	4085
1	2293	4086
1	2192	4086
1	2055	4088
1	1896	4089
1	1728	4090
1	1569	4091
1	1432	4092
1	1321	4093
1	1252	4094
1	1228	4094
1	1243	4096
1	1305	4097
1	1406	4098
1	1534	4099
1	1699	4100
1	1888	4101
1	2078	4102
1	2256	4103
1	2393	4104
1	2463	4105
1	2467	4106
1	2402	4107
1	2287	4108
1	2131	4109
1	1980	4110
1	1831	4111
1	1689	4112
1	1580	4113
1	1492	4114
1	1445	4115
1	1440	4116
1	1484	4117
1	1566	4118
1	1686	4119
1	1843	4120
1	2012	4121
1	2178	4122
1	2323	4123
1	2419	4124
1	2470	4125
1	2455	4126
1	2385	4127
1	2275	4128
1	2133	4129
1	1989	4130
1	1849	4131
1	1717	4132
1	1613	4133
1	1549	4134
1	1524	4135
1	1532	4136
1	1582	4137
1	1663	4138
1	1757	4139
1	1877	4140
1	2000	4141
1	2109	4142
1	2194	4143
1	2222	4144
1	2202	4145
1	2129	4146
1	2012	4147
1	1861	4148
1	1694	4149
1	1528	4150
1	1369	4151
1	1228	4152
1	1112	4153
1	1031	4154
1	997	4155
1	1009	4156
1	1063	4157
1	1161	4158
1	1289	4159
1	1446	4160
1	1616	4161
1	1780	4162
1	1922	4163
1	2015	4164
1	2064	4165
1	2061	4166
1	2003	4167
1	1895	4168
1	1754	4169
1	1608	4170
1	1472	4171
1	1348	4172
1	1268	4173
1	1217	4174
1	1211	4175
1	1245	4176
1	1330	4177
1	1450	4178
1	1596	4179
1	1764	4180
1	1947	4181
1	2109	4182
1	2246	4183
1	2320	4184
1	2348	4185
1	2320	4186
1	2246	4187
1	2131	4188
1	1993	4189
1	1848	4190
1	1711	4191
1	1588	4192
1	1499	4193
1	1439	4194
1	1423	4195
1	1446	4196
1	1511	4197
1	1607	4198
1	1714	4199
1	1856	4200
1	2003	4201
1	2151	4202
1	2288	4203
1	2377	4204
1	2420	4205
1	2411	4206
1	2345	4207
1	2243	4208
1	2112	4209
1	1974	4210
1	1838	4211
1	1703	4212
1	1597	4213
1	1524	4214
1	1490	4215
1	1501	4216
1	1550	4217
1	1642	4218
1	1755	4219
1	1899	4220
1	2050	4221
1	2189	4222
1	2314	4223
1	2393	4224
1	2422	4225
1	2392	4226
1	2293	4227
1	2157	4228
1	2009	4229
1	1861	4230
1	1724	4231
1	1608	4232
1	1512	4233
1	1443	4234
1	1416	4235
1	1436	4236
1	1506	4237
1	1595	4238
1	1724	4239
1	1868	4240
1	2026	4241
1	2178	4242
1	2310	4243
1	2399	4244
1	2435	4245
1	2410	4246
1	2324	4247
1	2186	4248
1	2028	4249
1	1869	4250
1	1713	4251
1	1581	4252
1	1487	4253
1	1424	4254
1	1400	4255
1	1431	4256
1	1500	4257
1	1600	4258
1	1724	4259
1	1869	4260
1	2022	4261
1	2170	4262
1	2294	4263
1	2381	4264
1	2414	4265
1	2389	4266
1	2313	4267
1	2191	4268
1	2054	4269
1	1913	4270
1	1770	4271
1	1647	4272
1	1547	4273
1	1480	4274
1	1459	4275
1	1492	4276
1	1572	4277
1	1685	4278
1	1821	4279
1	1974	4280
1	2131	4281
1	2275	4282
1	2384	4283
1	2454	4284
1	2480	4285
1	2458	4286
1	2386	4287
1	2286	4288
1	2150	4289
1	2011	4290
1	1862	4291
1	1724	4292
1	1611	4293
1	1538	4294
1	1503	4295
1	1508	4296
1	1550	4297
1	1620	4298
1	1723	4299
1	1857	4300
1	2001	4301
1	2147	4302
1	2284	4303
1	2372	4304
1	2418	4305
1	2408	4306
1	2345	4307
1	2248	4308
1	2114	4309
1	1970	4310
1	1828	4311
1	1695	4312
1	1589	4313
1	1518	4314
1	1488	4315
1	1497	4316
1	1542	4317
1	1625	4318
1	1743	4319
1	1907	4320
1	2084	4321
1	2262	4322
1	2407	4323
1	2495	4324
1	2516	4325
1	2485	4326
1	2379	4327
1	2235	4328
1	2061	4329
1	1890	4330
1	1726	4331
1	1593	4332
1	1499	4333
1	1440	4334
1	1424	4335
1	1450	4336
1	1521	4337
1	1625	4338
1	1759	4339
1	1917	4340
1	2079	4341
1	2258	4342
1	2367	4343
1	2460	4344
1	2506	4345
1	2496	4346
1	2430	4347
1	2330	4348
1	2206	4349
1	2073	4350
1	1938	4351
1	1818	4352
1	1716	4353
1	1652	4354
1	1616	4355
1	1618	4356
1	1665	4357
1	1746	4358
1	1864	4359
1	2011	4360
1	2173	4361
1	2341	4362
1	2484	4363
1	2558	4364
1	2591	4365
1	2578	4366
1	2523	4367
1	2427	4368
1	2299	4369
1	2142	4370
1	1996	4371
1	1861	4372
1	1742	4373
1	1659	4374
1	1615	4375
1	1622	4376
1	1680	4377
1	1769	4378
1	1881	4379
1	2025	4380
1	2182	4381
1	2341	4382
1	2488	4383
1	2561	4384
1	2584	4385
1	2556	4386
1	2485	4387
1	2351	4388
1	2182	4389
1	1995	4390
1	1796	4391
1	1623	4392
1	1487	4393
1	1402	4394
1	1377	4395
1	1424	4396
1	1521	4397
1	1654	4398
1	1798	4399
1	1965	4400
1	2132	4401
1	2291	4402
1	2419	4403
1	2488	4404
1	2496	4405
1	2443	4406
1	2328	4407
1	2176	4408
1	2000	4409
1	1829	4410
1	1668	4411
1	1542	4412
1	1460	4413
1	1413	4414
1	1403	4415
1	1428	4416
1	1490	4417
1	1582	4418
1	1701	4419
1	1849	4420
1	2002	4421
1	2145	4422
1	2266	4423
1	2339	4424
1	2364	4425
1	2329	4426
1	2242	4427
1	2119	4428
1	1974	4429
1	1822	4430
1	1672	4431
1	1543	4432
1	1443	4433
1	1373	4434
1	1346	4435
1	1362	4436
1	1420	4437
1	1512	4438
1	1644	4439
1	1796	4440
1	1973	4441
1	2132	4442
1	2271	4443
1	2350	4444
1	2367	4445
1	2327	4446
1	2240	4447
1	2106	4448
1	1949	4449
1	1782	4450
1	1626	4451
1	1482	4452
1	1358	4453
1	1269	4454
1	1229	4455
1	1237	4456
1	1292	4457
1	1391	4458
1	1523	4459
1	1674	4460
1	1844	4461
1	2001	4462
1	2139	4463
1	2238	4464
1	2276	4465
1	2257	4466
1	2173	4467
1	2055	4468
1	1907	4469
1	1747	4470
1	1602	4471
1	1476	4472
1	1369	4473
1	1305	4474
1	1271	4475
1	1291	4476
1	1349	4477
1	1450	4478
1	1574	4479
1	1718	4480
1	1872	4481
1	2013	4482
1	2131	4483
1	2205	4484
1	2238	4485
1	2222	4486
1	2163	4487
1	2073	4488
1	1948	4489
1	1793	4490
1	1643	4491
1	1515	4492
1	1422	4493
1	1363	4494
1	1348	4495
1	1376	4496
1	1450	4497
1	1556	4498
1	1682	4499
1	1834	4500
1	1984	4501
1	2128	4502
1	2260	4503
1	2337	4504
1	2367	4505
1	2336	4506
1	2250	4507
1	2111	4508
1	1948	4509
1	1765	4510
1	1593	4511
1	1435	4512
1	1304	4513
1	1211	4514
1	1170	4515
1	1179	4516
1	1238	4517
1	1337	4518
1	1471	4519
1	1631	4520
1	1796	4521
1	1957	4522
1	2094	4523
1	2196	4524
1	2258	4525
1	2262	4526
1	2219	4527
1	2145	4528
1	2040	4529
1	1919	4530
1	1786	4531
1	1660	4532
1	1560	4533
1	1471	4534
1	1403	4535
1	1373	4536
1	1407	4537
1	1456	4538
1	1561	4539
1	1705	4540
1	1857	4541
1	1996	4542
1	2113	4543
1	2191	4544
1	2222	4545
1	2194	4546
1	2118	4547
1	1999	4548
1	1856	4549
1	1698	4550
1	1551	4551
1	1424	4552
1	1335	4553
1	1286	4554
1	1278	4555
1	1320	4556
1	1415	4557
1	1532	4558
1	1675	4559
1	1849	4560
1	2029	4561
1	2194	4562
1	2323	4563
1	2398	4564
1	2410	4565
1	2359	4566
1	2260	4567
1	2118	4568
1	1956	4569
1	1775	4570
1	1599	4571
1	1445	4572
1	1323	4573
1	1250	4574
1	1225	4575
1	1253	4576
1	1325	4577
1	1443	4578
1	1584	4579
1	1751	4580
1	1927	4581
1	2082	4582
1	2205	4583
1	2284	4584
1	2319	4585
1	2305	4586
1	2248	4587
1	2148	4588
1	2022	4589
1	1887	4590
1	1747	4591
1	1611	4592
1	1491	4593
1	1391	4594
1	1322	4595
1	1301	4596
1	1321	4597
1	1384	4598
1	1494	4599
1	1638	4600
1	1796	4601
1	1949	4602
1	2075	4603
1	2151	4604
1	2182	4605
1	2160	4606
1	2091	4607
1	1989	4608
1	1859	4609
1	1719	4610
1	1593	4611
1	1485	4612
1	1404	4613
1	1355	4614
1	1345	4615
1	1373	4616
1	1449	4617
1	1553	4618
1	1680	4619
1	1834	4620
1	1993	4621
1	2133	4622
1	2260	4623
1	2327	4624
1	2346	4625
1	2317	4626
1	2236	4627
1	2105	4628
1	1951	4629
1	1782	4630
1	1625	4631
1	1485	4632
1	1377	4633
1	1310	4634
1	1286	4635
1	1301	4636
1	1351	4637
1	1442	4638
1	1557	4639
1	1710	4640
1	1869	4641
1	2038	4642
1	2156	4643
1	2256	4644
1	2312	4645
1	2323	4646
1	2284	4647
1	2183	4648
1	2057	4649
1	1899	4650
1	1733	4651
1	1579	4652
1	1449	4653
1	1350	4654
1	1298	4655
1	1287	4656
1	1321	4657
1	1399	4658
1	1517	4659
1	1668	4660
1	1829	4661
1	1977	4662
1	2111	4663
1	2193	4664
1	2240	4665
1	2233	4666
1	2170	4667
1	2066	4668
1	1942	4669
1	1792	4670
1	1655	4671
1	1538	4672
1	1459	4673
1	1428	4674
1	1439	4675
1	1495	4676
1	1595	4677
1	1728	4678
1	1869	4679
1	2009	4680
1	2124	4681
1	2207	4682
1	2268	4683
1	2279	4684
1	2250	4685
1	2168	4686
1	2052	4687
1	1908	4688
1	1747	4689
1	1587	4690
1	1444	4691
1	1323	4692
1	1241	4693
1	1194	4694
1	1186	4695
1	1219	4696
1	1298	4697
1	1423	4698
1	1565	4699
1	1733	4700
1	1912	4701
1	2084	4702
1	2242	4703
1	2350	4704
1	2400	4705
1	2376	4706
1	2280	4707
1	2133	4708
1	1965	4709
1	1791	4710
1	1629	4711
1	1485	4712
1	1372	4713
1	1305	4714
1	1277	4715
1	1293	4716
1	1354	4717
1	1450	4718
1	1571	4719
1	1715	4720
1	1869	4721
1	2012	4722
1	2131	4723
1	2206	4724
1	2240	4725
1	2220	4726
1	2155	4727
1	2054	4728
1	1923	4729
1	1781	4730
1	1647	4731
1	1534	4732
1	1451	4733
1	1398	4734
1	1372	4735
1	1394	4736
1	1451	4737
1	1553	4738
1	1676	4739
1	1829	4740
1	1985	4741
1	2138	4742
1	2273	4743
1	2356	4744
1	2381	4745
1	2345	4746
1	2267	4747
1	2147	4748
1	2000	4749
1	1837	4750
1	1657	4751
1	1491	4752
1	1357	4753
1	1266	4754
1	1227	4755
1	1238	4756
1	1293	4757
1	1380	4758
1	1508	4759
1	1660	4760
1	1830	4761
1	1989	4762
1	2119	4763
1	2209	4764
1	2253	4765
1	2244	4766
1	2184	4767
1	2094	4768
1	1970	4769
1	1840	4770
1	1700	4771
1	1580	4772
1	1487	4773
1	1420	4774
1	1382	4775
1	1395	4776
1	1442	4777
1	1527	4778
1	1641	4779
1	1783	4780
1	1937	4781
1	2081	4782
1	2207	4783
1	2282	4784
1	2314	4785
1	2293	4786
1	2231	4787
1	2132	4788
1	2006	4789
1	1859	4790
1	1691	4791
1	1535	4792
1	1407	4793
1	1320	4794
1	1285	4795
1	1297	4796
1	1359	4797
1	1454	4798
1	1571	4799
1	1711	4800
1	1861	4801
1	2002	4802
1	2122	4803
1	2191	4804
1	2210	4805
1	2169	4806
1	2079	4807
1	1957	4808
1	1802	4809
1	1643	4810
1	1492	4811
1	1370	4812
1	1288	4813
1	1249	4814
1	1260	4815
1	1309	4816
1	1397	4817
1	1512	4818
1	1651	4819
1	1819	4820
1	1987	4821
1	2131	4822
1	2242	4823
1	2301	4824
1	2312	4825
1	2262	4826
1	2162	4827
1	2026	4828
1	1859	4829
1	1687	4830
1	1529	4831
1	1397	4832
1	1305	4833
1	1265	4834
1	1271	4835
1	1319	4836
1	1403	4837
1	1494	4838
1	1618	4839
1	1764	4840
1	1922	4841
1	2055	4842
1	2168	4843
1	2238	4844
1	2261	4845
1	2228	4846
1	2143	4847
1	2021	4848
1	1872	4849
1	1730	4850
1	1597	4851
1	1488	4852
1	1398	4853
1	1337	4854
1	1307	4855
1	1319	4856
1	1374	4857
1	1477	4858
1	1607	4859
1	1764	4860
1	1929	4861
1	2075	4862
1	2183	4863
1	2253	4864
1	2262	4865
1	2217	4866
1	2132	4867
1	2020	4868
1	1891	4869
1	1755	4870
1	1636	4871
1	1540	4872
1	1476	4873
1	1445	4874
1	1450	4875
1	1490	4876
1	1555	4877
1	1646	4878
1	1755	4879
1	1891	4880
1	2035	4881
1	2170	4882
1	2281	4883
1	2348	4884
1	2367	4885
1	2327	4886
1	2241	4887
1	2112	4888
1	1966	4889
1	1817	4890
1	1673	4891
1	1549	4892
1	1459	4893
1	1402	4894
1	1376	4895
1	1398	4896
1	1446	4897
1	1529	4898
1	1638	4899
1	1778	4900
1	1936	4901
1	2076	4902
1	2179	4903
1	2221	4904
1	2205	4905
1	2118	4906
1	1974	4907
1	1791	4908
1	1592	4909
1	1395	4910
1	1211	4911
1	1053	4912
1	928	4913
1	848	4914
1	813	4915
1	825	4916
1	891	4917
1	1003	4918
1	1148	4919
1	1330	4920
1	1529	4921
1	1714	4922
1	1886	4923
1	1992	4924
1	2051	4925
1	2047	4926
1	1982	4927
1	1877	4928
1	1738	4929
1	1597	4930
1	1472	4931
1	1362	4932
1	1285	4933
1	1230	4934
1	1215	4935
1	1240	4936
1	1307	4937
1	1418	4938
1	1561	4939
1	1736	4940
1	1922	4941
1	2078	4942
1	2212	4943
1	2286	4944
1	2306	4945
1	2265	4946
1	2169	4947
1	2030	4948
1	1870	4949
1	1701	4950
1	1544	4951
1	1410	4952
1	1301	4953
1	1238	4954
1	1215	4955
1	1235	4956
1	1293	4957
1	1394	4958
1	1528	4959
1	1693	4960
1	1873	4961
1	2040	4962
1	2183	4963
1	2291	4964
1	2367	4965
1	2380	4966
1	2313	4967
1	2185	4968
1	2031	4969
1	1861	4970
1	1687	4971
1	1539	4972
1	1424	4973
1	1335	4974
1	1284	4975
1	1274	4976
1	1304	4977
1	1372	4978
1	1476	4979
1	1621	4980
1	1786	4981
1	1947	4982
1	2083	4983
1	2182	4984
1	2233	4985
1	2212	4986
1	2142	4987
1	2029	4988
1	1894	4989
1	1737	4990
1	1591	4991
1	1468	4992
1	1369	4993
1	1311	4994
1	1293	4995
1	1320	4996
1	1399	4997
1	1512	4998
1	1646	4999
1	1796	5000
1	1952	5001
1	2087	5002
1	2196	5003
1	2264	5004
1	2275	5005
1	2230	5006
1	2134	5007
1	2016	5008
1	1868	5009
1	1711	5010
1	1569	5011
1	1450	5012
1	1359	5013
1	1316	5014
1	1297	5015
1	1328	5016
1	1398	5017
1	1499	5018
1	1631	5019
1	1791	5020
1	1962	5021
1	2122	5022
1	2262	5023
1	2350	5024
1	2395	5025
1	2381	5026
1	2306	5027
1	2184	5028
1	2027	5029
1	1854	5030
1	1674	5031
1	1524	5032
1	1409	5033
1	1332	5034
1	1305	5035
1	1317	5036
1	1364	5037
1	1454	5038
1	1577	5039
1	1721	5040
1	1870	5041
1	2006	5042
1	2117	5043
1	2188	5044
1	2214	5045
1	2191	5046
1	2130	5047
1	2028	5048
1	1904	5049
1	1765	5050
1	1634	5051
1	1517	5052
1	1428	5053
1	1357	5054
1	1332	5055
1	1350	5056
1	1424	5057
1	1533	5058
1	1661	5059
1	1818	5060
1	1978	5061
1	2127	5062
1	2246	5063
1	2315	5064
1	2338	5065
1	2305	5066
1	2222	5067
1	2105	5068
1	1957	5069
1	1791	5070
1	1634	5071
1	1490	5072
1	1377	5073
1	1312	5074
1	1294	5075
1	1328	5076
1	1409	5077
1	1509	5078
1	1641	5079
1	1809	5080
1	1985	5081
1	2145	5082
1	2278	5083
1	2348	5084
1	2366	5085
1	2319	5086
1	2222	5087
1	2103	5088
1	1952	5089
1	1791	5090
1	1638	5091
1	1510	5092
1	1415	5093
1	1350	5094
1	1337	5095
1	1373	5096
1	1461	5097
1	1578	5098
1	1712	5099
1	1875	5100
1	2049	5101
1	2214	5102
1	2357	5103
1	2431	5104
1	2440	5105
1	2380	5106
1	2268	5107
1	2125	5108
1	1967	5109
1	1800	5110
1	1647	5111
1	1526	5112
1	1439	5113
1	1384	5114
1	1382	5115
1	1429	5116
1	1516	5117
1	1634	5118
1	1782	5119
1	1947	5120
1	2114	5121
1	2270	5122
1	2392	5123
1	2464	5124
1	2484	5125
1	2445	5126
1	2353	5127
1	2230	5128
1	2076	5129
1	1922	5130
1	1766	5131
1	1634	5132
1	1528	5133
1	1445	5134
1	1405	5135
1	1421	5136
1	1489	5137
1	1580	5138
1	1712	5139
1	1878	5140
1	2039	5141
1	2181	5142
1	2303	5143
1	2375	5144
1	2396	5145
1	2359	5146
1	2269	5147
1	2131	5148
1	1971	5149
1	1814	5150
1	1669	5151
1	1555	5152
1	1455	5153
1	1390	5154
1	1362	5155
1	1382	5156
1	1446	5157
1	1544	5158
1	1674	5159
1	1842	5180
1	2006	5181
1	2155	5182
1	2278	5183
1	2341	5184
1	2345	5185
1	2300	5186
1	2197	5187
1	2061	5188
1	1901	5189
1	1736	5190
1	1583	5191
1	1451	5192
1	1346	5193
1	1271	5194
1	1247	5195
1	1269	5196
1	1341	5197
1	1455	5198
1	1600	5199
1	1773	5180
1	1952	5181
1	2107	5182
1	2235	5183
1	2296	5184
1	2301	5185
1	2247	5186
1	2137	5187
1	1998	5188
1	1829	5189
1	1656	5190
1	1484	5191
1	1335	5192
1	1216	5193
1	1133	5194
1	1094	5195
1	1110	5196
1	1176	5197
1	1279	5198
1	1417	5199
1	1577	5200
1	1744	5201
1	1909	5202
1	2040	5203
1	2115	5204
1	2142	5205
1	2115	5206
1	2038	5207
1	1931	5208
1	1795	5209
1	1657	5210
1	1527	5211
1	1412	5212
1	1311	5213
1	1238	5214
1	1190	5215
1	1180	5216
1	1215	5217
1	1289	5218
1	1395	5219
1	1530	5220
1	1682	5221
1	1835	5222
1	1958	5223
1	2043	5224
1	2074	5225
1	2044	5226
1	1963	5227
1	1847	5228
1	1702	5229
1	1553	5230
1	1409	5231
1	1286	5232
1	1199	5233
1	1141	5234
1	1131	5235
1	1158	5236
1	1230	5237
1	1332	5238
1	1466	5239
1	1611	5240
1	1770	5241
1	1916	5242
1	2029	5243
1	2099	5244
1	2118	5245
1	2088	5246
1	2001	5247
1	1871	5248
1	1708	5249
1	1547	5250
1	1399	5251
1	1271	5252
1	1173	5253
1	1111	5254
1	1088	5255
1	1119	5256
1	1190	5257
1	1294	5258
1	1436	5259
1	1595	5260
1	1753	5261
1	1895	5262
1	2004	5263
1	2063	5264
1	2083	5265
1	2052	5266
1	1972	5267
1	1849	5268
1	1695	5269
1	1538	5270
1	1384	5271
1	1253	5272
1	1152	5273
1	1103	5274
1	1104	5275
1	1143	5276
1	1215	5277
1	1319	5278
1	1450	5279
1	1608	5280
1	1767	5281
1	1916	5282
1	2032	5283
1	2099	5284
1	2107	5285
1	2061	5286
1	1966	5287
1	1834	5288
1	1677	5289
1	1521	5290
1	1372	5291
1	1264	5292
1	1175	5293
1	1129	5294
1	1126	5295
1	1176	5296
1	1265	5297
1	1383	5298
1	1523	5299
1	1671	5300
1	1823	5301
1	1960	5302
1	2070	5303
1	2135	5304
1	2147	5305
1	2105	5306
1	2010	5307
1	1879	5308
1	1719	5309
1	1566	5310
1	1418	5311
1	1285	5312
1	1170	5313
1	1094	5314
1	1053	5315
1	1069	5316
1	1136	5317
1	1250	5318
1	1411	5319
1	1587	5320
1	1762	5321
1	1919	5322
1	2037	5323
1	2105	5324
1	2125	5325
1	2088	5326
1	2003	5327
1	1890	5328
1	1744	5329
1	1589	5330
1	1439	5331
1	1305	5332
1	1193	5333
1	1106	5334
1	1058	5335
1	1059	5336
1	1116	5337
1	1215	5338
1	1340	5339
1	1492	5340
1	1655	5341
1	1817	5342
1	1950	5343
1	2038	5344
1	2066	5345
1	2041	5346
1	1976	5347
1	1872	5348
1	1740	5349
1	1602	5350
1	1476	5351
1	1359	5352
1	1278	5353
1	1220	5354
1	1193	5355
1	1193	5356
1	1233	5357
1	1316	5358
1	1431	5359
1	1574	5360
1	1721	5361
1	1862	5362
1	1974	5363
1	2047	5364
1	2076	5365
1	2055	5366
1	1986	5367
1	1877	5368
1	1737	5369
1	1589	5370
1	1443	5371
1	1307	5372
1	1199	5373
1	1122	5374
1	1083	5375
1	1091	5376
1	1147	5377
1	1236	5378
1	1355	5379
1	1508	5380
1	1670	5381
1	1828	5382
1	1960	5383
1	2053	5384
1	2118	5385
1	2129	5386
1	2080	5387
1	1984	5388
1	1843	5389
1	1663	5390
1	1477	5391
1	1319	5392
1	1186	5393
1	1084	5394
1	1022	5395
1	1013	5396
1	1056	5397
1	1142	5398
1	1266	5399
1	1424	5400
1	1589	5401
1	1748	5402
1	1890	5403
1	1989	5404
1	2039	5405
1	2038	5406
1	1975	5407
1	1869	5408
1	1721	5409
1	1555	5410
1	1395	5411
1	1251	5412
1	1144	5413
1	1076	5414
1	1065	5415
1	1110	5416
1	1197	5417
1	1310	5418
1	1452	5419
1	1608	5420
1	1772	5421
1	1922	5422
1	2034	5423
1	2102	5424
1	2118	5425
1	2079	5426
1	1994	5427
1	1865	5428
1	1697	5429
1	1529	5430
1	1364	5431
1	1220	5432
1	1114	5433
1	1053	5434
1	1039	5435
1	1080	5436
1	1173	5437
1	1279	5438
1	1424	5439
1	1586	5440
1	1739	5441
1	1875	5442
1	1980	5443
1	2039	5444
1	2043	5445
1	1996	5446
1	1901	5447
1	1765	5448
1	1618	5449
1	1473	5450
1	1330	5451
1	1222	5452
1	1148	5453
1	1112	5454
1	1121	5455
1	1167	5456
1	1243	5457
1	1340	5458
1	1453	5459
1	1584	5460
1	1721	5461
1	1856	5462
1	1971	5463
1	2039	5464
1	2066	5465
1	2039	5466
1	1964	5467
1	1856	5468
1	1715	5469
1	1569	5470
1	1424	5471
1	1280	5472
1	1167	5473
1	1084	5474
1	1045	5475
1	1050	5476
1	1102	5477
1	1187	5478
1	1314	5479
1	1475	5480
1	1638	5481
1	1791	5482
1	1922	5483
1	2007	5484
1	2035	5485
1	2012	5486
1	1935	5487
1	1817	5488
1	1668	5489
1	1519	5490
1	1366	5491
1	1246	5492
1	1162	5493
1	1121	5494
1	1115	5495
1	1148	5496
1	1225	5497
1	1329	5498
1	1458	5499
1	1603	5500
1	1751	5501
1	1890	5502
1	1999	5503
1	2053	5504
1	2063	5505
1	2017	5506
1	1931	5507
1	1809	5508
1	1659	5509
1	1503	5510
1	1359	5511
1	1245	5512
1	1160	5513
1	1101	5514
1	1080	5515
1	1101	5516
1	1162	5517
1	1256	5518
1	1372	5519
1	1528	5520
1	1686	5521
1	1836	5522
1	1949	5523
1	2030	5524
1	2057	5525
1	2027	5526
1	1955	5527
1	1845	5528
1	1707	5529
1	1556	5530
1	1423	5531
1	1297	5532
1	1212	5533
1	1153	5534
1	1136	5535
1	1152	5536
1	1210	5537
1	1292	5538
1	1405	5539
1	1564	5560
1	1737	5561
1	1896	5562
1	2027	5563
1	2108	5564
1	2140	5565
1	2118	5566
1	2042	5567
1	1922	5568
1	1780	5569
1	1629	5570
1	1480	5571
1	1343	5572
1	1240	5573
1	1170	5574
1	1125	5575
1	1121	5576
1	1162	5577
1	1241	5578
1	1346	5579
1	1493	5580
1	1645	5581
1	1791	5582
1	1911	5583
1	1985	5584
1	2008	5585
1	1983	5586
1	1917	5587
1	1803	5588
1	1669	5589
1	1530	5590
1	1403	5591
1	1291	5592
1	1211	5593
1	1163	5594
1	1162	5595
1	1202	5596
1	1283	5597
1	1379	5598
1	1494	5599
1	1535	5540
1	1680	5541
1	1814	5542
1	1919	5543
1	1979	5544
1	1992	5545
1	1948	5546
1	1860	5547
1	1739	5548
1	1605	5549
1	1466	5550
1	1335	5551
1	1228	5552
1	1139	5553
1	1085	5554
1	1071	5555
1	1101	5556
1	1163	5557
1	1267	5558
1	1403	5559
1	1623	5600
1	1762	5601
1	1887	5602
1	1982	5603
1	2030	5604
1	2029	5605
1	1982	5606
1	1890	5607
1	1753	5608
1	1591	5609
1	1425	5610
1	1267	5611
1	1136	5612
1	1037	5613
1	990	5614
1	979	5615
1	1011	5616
1	1094	5617
1	1218	5618
1	1376	5619
1	1565	5620
1	1754	5621
1	1935	5622
1	2079	5623
1	2154	5624
1	2156	5625
1	2089	5626
1	1976	5627
1	1832	5628
1	1654	5629
1	1476	5630
1	1305	5631
1	1165	5632
1	1058	5633
1	991	5634
1	975	5635
1	1001	5636
1	1069	5637
1	1175	5638
1	1311	5639
1	1476	5640
1	1634	5641
1	1791	5642
1	1913	5643
1	1985	5644
1	2008	5645
1	1982	5646
1	1916	5647
1	1814	5648
1	1686	5649
1	1555	5650
1	1427	5651
1	1312	5652
1	1220	5653
1	1157	5654
1	1130	5655
1	1140	5656
1	1194	5657
1	1281	5658
1	1398	5659
1	1537	5660
1	1679	5661
1	1803	5662
1	1901	5663
1	1953	5664
1	1958	5665
1	1908	5666
1	1817	5667
1	1688	5668
1	1536	5669
1	1382	5670
1	1238	5671
1	1127	5672
1	1049	5673
1	1016	5674
1	1024	5675
1	1075	5676
1	1168	5677
1	1293	5678
1	1454	5679
1	1634	5680
1	1802	5681
1	1952	5682
1	2067	5683
1	2133	5684
1	2157	5685
1	2122	5686
1	2031	5687
1	1884	5688
1	1701	5689
1	1514	5690
1	1350	5691
1	1221	5692
1	1131	5693
1	1080	5694
1	1072	5695
1	1117	5696
1	1212	5697
1	1337	5698
1	1490	5699
1	1662	5700
1	1838	5701
1	2000	5702
1	2135	5703
1	2222	5704
1	2253	5705
1	2222	5706
1	2142	5707
1	2021	5708
1	1873	5709
1	1711	5710
1	1558	5711
1	1437	5712
1	1332	5713
1	1255	5714
1	1215	5715
1	1215	5716
1	1251	5717
1	1314	5718
1	1410	5719
1	1525	5720
1	1638	5721
1	1733	5722
1	1794	5723
1	1815	5724
1	1776	5725
1	1688	5726
1	1565	5727
1	1415	5728
1	1241	5729
1	1071	5730
1	910	5731
1	783	5732
1	693	5733
1	649	5734
1	650	5735
1	691	5736
1	792	5737
1	926	5738
1	1099	5739
1	1297	5740
1	1508	5741
1	1699	5742
1	1865	5743
1	1974	5744
1	2027	5745
1	2014	5746
1	1955	5747
1	1843	5748
1	1689	5749
1	1518	5750
1	1354	5751
1	1215	5752
1	1111	5753
1	1051	5754
1	1033	5755
1	1068	5756
1	1143	5757
1	1246	5758
1	1372	5759
1	1530	5760
1	1688	5761
1	1844	5762
1	1967	5763
1	2035	5764
1	2053	5765
1	2013	5766
1	1919	5767
1	1783	5768
1	1634	5769
1	1485	5770
1	1346	5771
1	1241	5772
1	1165	5773
1	1127	5774
1	1134	5775
1	1193	5776
1	1299	5777
1	1437	5778
1	1604	5779
1	1790	5780
1	1971	5781
1	2126	5782
1	2250	5783
1	2314	5784
1	2315	5785
1	2251	5786
1	2127	5787
1	1962	5788
1	1759	5789
1	1560	5790
1	1380	5791
1	1233	5792
1	1125	5793
1	1058	5794
1	1032	5795
1	1063	5796
1	1148	5797
1	1267	5798
1	1423	5799
1	1598	5800
1	1785	5801
1	1960	5802
1	2105	5803
1	2192	5804
1	2235	5805
1	2196	5806
1	2105	5807
1	1974	5808
1	1824	5809
1	1662	5810
1	1517	5811
1	1391	5812
1	1287	5813
1	1218	5814
1	1188	5815
1	1202	5816
1	1261	5817
1	1354	5818
1	1481	5819
1	1639	5840
1	1802	5841
1	1958	5842
1	2079	5843
1	2149	5844
1	2170	5845
1	2142	5846
1	2068	5847
1	1955	5848
1	1819	5849
1	1662	5850
1	1516	5851
1	1391	5852
1	1298	5853
1	1246	5854
1	1240	5855
1	1274	5856
1	1343	5857
1	1445	5858
1	1570	5859
1	1713	5840
1	1873	5841
1	2011	5842
1	2114	5843
1	2170	5844
1	2181	5845
1	2143	5846
1	2054	5847
1	1926	5848
1	1764	5849
1	1607	5850
1	1465	5851
1	1346	5852
1	1265	5853
1	1215	5854
1	1204	5855
1	1243	5856
1	1325	5857
1	1440	5858
1	1581	5859
1	1746	5860
1	1916	5861
1	2061	5862
1	2172	5863
1	2236	5864
1	2248	5865
1	2202	5866
1	2117	5867
1	1992	5868
1	1844	5869
1	1687	5870
1	1546	5871
1	1424	5872
1	1329	5873
1	1280	5874
1	1269	5875
1	1302	5876
1	1372	5877
1	1476	5878
1	1595	5879
1	1739	5880
1	1895	5881
1	2034	5882
1	2142	5883
1	2209	5884
1	2222	5885
1	2184	5886
1	2100	5887
1	1980	5888
1	1851	5889
1	1713	5890
1	1583	5891
1	1484	5892
1	1409	5893
1	1372	5894
1	1374	5895
1	1418	5896
1	1488	5897
1	1576	5898
1	1683	5899
1	1814	5900
1	1948	5901
1	2070	5902
1	2170	5903
1	2240	5904
1	2258	5905
1	2222	5906
1	2148	5907
1	2034	5908
1	1888	5909
1	1733	5910
1	1589	5911
1	1467	5912
1	1375	5913
1	1324	5914
1	1311	5915
1	1340	5916
1	1409	5917
1	1507	5918
1	1639	5919
1	1801	5920
1	1974	5921
1	2133	5922
1	2275	5923
1	2357	5924
1	2393	5925
1	2364	5926
1	2279	5927
1	2157	5928
1	2012	5929
1	1849	5930
1	1691	5931
1	1565	5932
1	1476	5933
1	1424	5934
1	1416	5935
1	1445	5936
1	1508	5937
1	1602	5938
1	1708	5939
1	1845	5940
1	1986	5941
1	2130	5942
1	2258	5943
1	2332	5944
1	2358	5945
1	2322	5946
1	2236	5947
1	2106	5948
1	1967	5949
1	1824	5950
1	1688	5951
1	1575	5952
1	1484	5953
1	1419	5954
1	1395	5955
1	1418	5956
1	1481	5957
1	1592	5958
1	1731	5959
1	1897	5960
1	2070	5961
1	2221	5962
1	2336	5963
1	2392	5964
1	2392	5965
1	2330	5966
1	2230	5967
1	2099	5968
1	1949	5969
1	1795	5970
1	1652	5971
1	1529	5972
1	1447	5973
1	1401	5974
1	1401	5975
1	1450	5976
1	1541	5977
1	1647	5978
1	1778	5979
1	1930	5980
1	2079	5981
1	2214	5982
1	2327	5983
1	2386	5984
1	2395	5985
1	2343	5986
1	2236	5987
1	2089	5988
1	1913	5989
1	1729	5990
1	1549	5991
1	1402	5992
1	1278	5993
1	1200	5994
1	1168	5995
1	1188	5996
1	1265	5997
1	1382	5998
1	1539	5999
1	1723	6000
1	1909	6001
1	2069	6002
1	2197	6003
1	2271	6004
1	2284	6005
1	2241	6006
1	2144	6007
1	2014	6008
1	1868	6009
1	1711	6010
1	1564	6011
1	1439	6012
1	1337	6013
1	1267	6014
1	1241	6015
1	1264	6016
1	1323	6017
1	1428	6018
1	1548	6019
1	1692	6020
1	1848	6021
1	1998	6022
1	2120	6023
1	2208	6024
1	2246	6025
1	2219	6026
1	2142	6027
1	2026	6028
1	1890	6029
1	1744	6030
1	1619	6031
1	1510	6032
1	1434	6033
1	1374	6034
1	1357	6035
1	1376	6036
1	1435	6037
1	1510	6038
1	1651	6039
1	1760	6040
1	1917	6041
1	2050	6042
1	2154	6043
1	2210	6044
1	2215	6045
1	2172	6046
1	2082	6047
1	1959	6048
1	1811	6049
1	1659	6050
1	1514	6051
1	1377	6052
1	1268	6053
1	1194	6054
1	1166	6055
1	1193	6056
1	1267	6057
1	1376	6058
1	1514	6059
1	1677	6060
1	1846	6061
1	2002	6062
1	2145	6063
1	2237	6064
1	2278	6065
1	2249	6066
1	2157	6067
1	2026	6068
1	1869	6069
1	1698	6070
1	1542	6071
1	1412	6072
1	1310	6073
1	1252	6074
1	1242	6075
1	1284	6076
1	1364	6077
1	1482	6078
1	1617	6079
1	1775	6080
1	1944	6081
1	2094	6082
1	2219	6083
1	2305	6084
1	2333	6085
1	2303	6086
1	2212	6087
1	2090	6088
1	1934	6089
1	1769	6090
1	1607	6091
1	1481	6092
1	1381	6093
1	1325	6094
1	1319	6095
1	1364	6096
1	1458	6097
1	1575	6098
1	1714	6099
1	1878	6100
1	2032	6101
1	2165	6102
1	2268	6103
1	2314	6104
1	2314	6105
1	2258	6106
1	2153	6107
1	2021	6108
1	1869	6109
1	1712	6110
1	1575	6111
1	1463	6112
1	1382	6113
1	1345	6114
1	1343	6115
1	1382	6116
1	1462	6117
1	1569	6118
1	1712	6119
1	1893	6120
1	2079	6121
1	2253	6122
1	2395	6123
1	2477	6124
1	2489	6125
1	2421	6126
1	2289	6127
1	2115	6128
1	1922	6129
1	1726	6130
1	1551	6131
1	1407	6132
1	1294	6133
1	1225	6134
1	1206	6135
1	1243	6136
1	1330	6137
1	1450	6138
1	1602	6139
1	1769	6140
1	1957	6141
1	2119	6142
1	2255	6143
1	2336	6144
1	2367	6145
1	2339	6146
1	2257	6147
1	2131	6148
1	1986	6149
1	1842	6150
1	1698	6151
1	1583	6152
1	1508	6153
1	1467	6154
1	1476	6155
1	1528	6156
1	1607	6157
1	1719	6158
1	1856	6159
1	1998	6160
1	2133	6161
1	2262	6162
1	2357	6163
1	2399	6164
1	2399	6165
1	2341	6166
1	2240	6167
1	2107	6168
1	1957	6169
1	1791	6170
1	1644	6171
1	1524	6172
1	1437	6173
1	1392	6174
1	1379	6175
1	1422	6176
1	1502	6177
1	1616	6178
1	1760	6179
1	1927	6180
1	2101	6181
1	2263	6182
1	2407	6183
1	2491	6184
1	2511	6185
1	2476	6186
1	2388	6187
1	2259	6188
1	2084	6189
1	1907	6190
1	1717	6191
1	1568	6192
1	1436	6193
1	1347	6194
1	1317	6195
1	1335	6196
1	1409	6197
1	1513	6198
1	1645	6199
1	1796	6200
1	1953	6201
1	2092	6202
1	2206	6203
1	2279	6204
1	2306	6205
1	2288	6206
1	2236	6207
1	2146	6208
1	2038	6209
1	1921	6210
1	1793	6211
1	1677	6212
1	1584	6213
1	1523	6214
1	1504	6215
1	1534	6216
1	1594	6217
1	1682	6218
1	1811	6219
1	1961	6220
1	2113	6221
1	2261	6222
1	2371	6223
1	2435	6224
1	2462	6225
1	2432	6226
1	2342	6227
1	2214	6228
1	2057	6229
1	1895	6230
1	1736	6231
1	1605	6232
1	1503	6233
1	1437	6234
1	1413	6235
1	1433	6236
1	1500	6237
1	1603	6238
1	1733	6239
1	1891	6240
1	2045	6241
1	2188	6242
1	2312	6243
1	2387	6244
1	2431	6245
1	2422	6246
1	2372	6247
1	2268	6248
1	2129	6249
1	1975	6250
1	1829	6251
1	1697	6252
1	1598	6253
1	1527	6254
1	1492	6255
1	1503	6256
1	1551	6257
1	1642	6258
1	1752	6259
1	1890	6260
1	2031	6261
1	2170	6262
1	2288	6263
1	2361	6264
1	2386	6265
1	2355	6266
1	2275	6267
1	2157	6268
1	2012	6269
1	1865	6270
1	1724	6271
1	1607	6272
1	1523	6273
1	1469	6274
1	1456	6275
1	1493	6276
1	1569	6277
1	1673	6278
1	1814	6279
1	1974	6280
1	2138	6281
1	2305	6282
1	2448	6283
1	2529	6284
1	2566	6285
1	2540	6286
1	2463	6287
1	2324	6288
1	2147	6289
1	1963	6290
1	1782	6291
1	1638	6292
1	1529	6293
1	1461	6294
1	1438	6295
1	1468	6296
1	1549	6297
1	1662	6298
1	1809	6299
1	1974	6300
1	2146	6301
1	2312	6302
1	2450	6303
1	2520	6304
1	2530	6305
1	2488	6306
1	2384	6307
1	2248	6308
1	2088	6309
1	1923	6310
1	1772	6311
1	1659	6312
1	1579	6313
1	1529	6314
1	1516	6315
1	1553	6316
1	1630	6317
1	1740	6318
1	1873	6319
1	2022	6320
1	2170	6321
1	2310	6322
1	2417	6323
1	2471	6324
1	2471	6325
1	2416	6326
1	2317	6327
1	2189	6328
1	2043	6329
1	1891	6330
1	1741	6331
1	1616	6332
1	1530	6333
1	1485	6334
1	1477	6335
1	1511	6336
1	1596	6337
1	1707	6338
1	1860	6339
1	2010	6340
1	2170	6341
1	2317	6342
1	2431	6343
1	2500	6344
1	2509	6345
1	2462	6346
1	2354	6347
1	2209	6348
1	2040	6349
1	1892	6350
1	1750	6351
1	1641	6352
1	1570	6353
1	1540	6354
1	1555	6355
1	1618	6356
1	1720	6357
1	1854	6358
1	1996	6359
1	2149	6360
1	2306	6361
1	2436	6362
1	2524	6363
1	2558	6364
1	2536	6365
1	2479	6366
1	2366	6367
1	2218	6368
1	2062	6369
1	1908	6370
1	1764	6371
1	1645	6372
1	1564	6373
1	1518	6374
1	1512	6375
1	1548	6376
1	1625	6377
1	1738	6378
1	1881	6379
1	2044	6400
1	2182	6401
1	2310	6402
1	2410	6403
1	2457	6404
1	2462	6405
1	2415	6406
1	2323	6407
1	2202	6408
1	2066	6409
1	1926	6410
1	1800	6411
1	1699	6412
1	1625	6413
1	1582	6414
1	1579	6415
1	1620	6416
1	1699	6417
1	1809	6418
1	1934	6419
1	2042	6380
1	2209	6381
1	2365	6382
1	2487	6383
1	2546	6384
1	2568	6385
1	2534	6386
1	2453	6387
1	2327	6388
1	2172	6389
1	2021	6390
1	1881	6391
1	1769	6392
1	1693	6393
1	1644	6394
1	1629	6395
1	1649	6396
1	1706	6397
1	1790	6398
1	1908	6399
1	2079	6420
1	2222	6421
1	2355	6422
1	2466	6423
1	2509	6424
1	2509	6425
1	2466	6426
1	2371	6427
1	2256	6428
1	2117	6429
1	1975	6430
1	1842	6431
1	1723	6432
1	1648	6433
1	1611	6434
1	1620	6435
1	1665	6436
1	1744	6437
1	1854	6438
1	1982	6439
1	2124	6440
1	2284	6441
1	2429	6442
1	2525	6443
1	2579	6444
1	2580	6445
1	2529	6446
1	2434	6447
1	2298	6448
1	2140	6449
1	1989	6450
1	1845	6451
1	1717	6452
1	1628	6453
1	1575	6454
1	1581	6455
1	1629	6456
1	1703	6457
1	1809	6458
1	1933	6459
1	2079	6460
1	2236	6461
1	2379	6462
1	2492	6463
1	2538	6464
1	2548	6465
1	2512	6466
1	2419	6467
1	2289	6468
1	2139	6469
1	1996	6470
1	1861	6471
1	1749	6472
1	1672	6473
1	1628	6474
1	1608	6475
1	1633	6476
1	1692	6477
1	1782	6478
1	1895	6479
1	2034	6480
1	2179	6481
1	2312	6482
1	2420	6483
1	2487	6484
1	2503	6485
1	2472	6486
1	2391	6487
1	2278	6488
1	2143	6489
1	2000	6490
1	1862	6491
1	1737	6492
1	1635	6493
1	1567	6494
1	1539	6495
1	1555	6496
1	1611	6497
1	1708	6498
1	1834	6499
1	1978	6500
1	2134	6501
1	2290	6502
1	2418	6503
1	2496	6504
1	2516	6505
1	2491	6506
1	2401	6507
1	2278	6508
1	2129	6509
1	1982	6510
1	1843	6511
1	1715	6512
1	1619	6513
1	1552	6514
1	1528	6515
1	1549	6516
1	1611	6517
1	1712	6518
1	1850	6519
1	2000	6520
1	2152	6521
1	2292	6522
1	2397	6523
1	2446	6524
1	2451	6525
1	2404	6526
1	2314	6527
1	2195	6528
1	2063	6529
1	1927	6530
1	1809	6531
1	1710	6532
1	1642	6533
1	1612	6534
1	1625	6535
1	1668	6536
1	1750	6537
1	1852	6538
1	1973	6539
1	2114	6540
1	2259	6541
1	2380	6542
1	2471	6543
1	2506	6544
1	2488	6545
1	2419	6546
1	2309	6547
1	2163	6548
1	2008	6549
1	1865	6550
1	1738	6551
1	1646	6552
1	1585	6553
1	1554	6554
1	1559	6555
1	1607	6556
1	1687	6557
1	1791	6558
1	1931	6559
1	2084	6560
1	2237	6561
1	2382	6562
1	2485	6563
1	2525	6564
1	2525	6565
1	2485	6566
1	2394	6567
1	2277	6568
1	2131	6569
1	1998	6570
1	1875	6571
1	1774	6572
1	1713	6573
1	1683	6574
1	1683	6575
1	1722	6576
1	1802	6577
1	1914	6578
1	2050	6579
1	2202	6580
1	2362	6581
1	2499	6582
1	2589	6583
1	2640	6584
1	2638	6585
1	2577	6586
1	2474	6587
1	2328	6588
1	2150	6589
1	1965	6590
1	1786	6591
1	1632	6592
1	1503	6593
1	1424	6594
1	1377	6595
1	1381	6596
1	1427	6597
1	1497	6598
1	1594	6599
1	1712	6600
1	1838	6601
1	1947	6602
1	2032	6603
1	2066	6604
1	2055	6605
1	1991	6606
1	1886	6607
1	1746	6608
1	1598	6609
1	1450	6610
1	1317	6611
1	1206	6612
1	1136	6613
1	1107	6614
1	1120	6615
1	1181	6616
1	1278	6617
1	1419	6618
1	1571	6619
1	1742	6620
1	1925	6621
1	2089	6622
1	2218	6623
1	2299	6624
1	2315	6625
1	2272	6626
1	2172	6627
1	2043	6628
1	1890	6629
1	1740	6630
1	1615	6631
1	1521	6632
1	1467	6633
1	1446	6634
1	1464	6635
1	1513	6636
1	1607	6637
1	1713	6638
1	1855	6639
1	1976	6640
1	2112	6641
1	2222	6642
1	2314	6643
1	2359	6644
1	2360	6645
1	2307	6646
1	2207	6647
1	2079	6648
1	1943	6649
1	1801	6650
1	1669	6651
1	1557	6652
1	1476	6653
1	1424	6654
1	1400	6655
1	1429	6656
1	1503	6657
1	1615	6658
1	1752	6659
1	1917	6660
1	2084	6661
1	2247	6662
1	2382	6663
1	2456	6664
1	2463	6665
1	2406	6666
1	2293	6667
1	2142	6668
1	1976	6669
1	1817	6670
1	1665	6671
1	1542	6672
1	1449	6673
1	1393	6674
1	1380	6675
1	1422	6676
1	1497	6677
1	1611	6678
1	1759	6679
1	1926	6680
1	2096	6681
1	2245	6682
1	2351	6683
1	2397	6684
1	2379	6685
1	2299	6686
1	2171	6687
1	2024	6688
1	1859	6689
1	1699	6690
1	1553	6691
1	1432	6692
1	1346	6693
1	1299	6694
1	1297	6695
1	1355	6696
1	1450	6697
1	1572	6698
1	1716	6699
1	1885	6700
1	2052	6701
1	2205	6702
1	2327	6703
1	2389	6704
1	2393	6705
1	2338	6706
1	2222	6707
1	2079	6708
1	1909	6709
1	1733	6710
1	1572	6711
1	1438	6712
1	1344	6713
1	1293	6714
1	1286	6715
1	1322	6716
1	1403	6717
1	1512	6718
1	1651	6719
1	1790	6740
1	1950	6741
1	2097	6742
1	2210	6743
1	2284	6744
1	2309	6745
1	2273	6746
1	2171	6747
1	2032	6748
1	1863	6749
1	1689	6750
1	1540	6751
1	1422	6752
1	1333	6753
1	1293	6754
1	1292	6755
1	1328	6756
1	1399	6757
1	1503	6758
1	1648	6759
1	1819	6720
1	1988	6721
1	2139	6722
1	2275	6723
1	2353	6724
1	2376	6725
1	2338	6726
1	2250	6727
1	2120	6728
1	1973	6729
1	1814	6730
1	1652	6731
1	1513	6732
1	1404	6733
1	1330	6734
1	1317	6735
1	1344	6736
1	1422	6737
1	1520	6738
1	1647	6739
1	1827	6760
1	2000	6761
1	2155	6762
1	2269	6763
1	2314	6764
1	2309	6765
1	2244	6766
1	2127	6767
1	1985	6768
1	1824	6769
1	1659	6770
1	1510	6771
1	1396	6772
1	1314	6773
1	1280	6774
1	1289	6775
1	1341	6776
1	1436	6777
1	1563	6778
1	1717	6779
1	1891	6780
1	2057	6781
1	2197	6782
1	2314	6783
1	2369	6784
1	2368	6785
1	2314	6786
1	2209	6787
1	2078	6788
1	1929	6789
1	1777	6790
1	1643	6791
1	1533	6792
1	1455	6793
1	1407	6794
1	1390	6795
1	1403	6796
1	1454	6797
1	1543	6798
1	1660	6799
1	1802	6800
1	1954	6801
1	2093	6802
1	2198	6803
1	2262	6804
1	2273	6805
1	2228	6806
1	2142	6807
1	2026	6808
1	1886	6809
1	1746	6810
1	1622	6811
1	1529	6812
1	1476	6813
1	1450	6814
1	1453	6815
1	1494	6816
1	1571	6817
1	1672	6818
1	1793	6819
1	1934	6820
1	2065	6821
1	2181	6822
1	2276	6823
1	2327	6824
1	2332	6825
1	2275	6826
1	2168	6827
1	2039	6828
1	1886	6829
1	1729	6830
1	1586	6831
1	1467	6832
1	1373	6833
1	1325	6834
1	1319	6835
1	1347	6836
1	1424	6837
1	1529	6838
1	1649	6839
1	1787	6840
1	1922	6841
1	2043	6842
1	2142	6843
1	2197	6844
1	2198	6845
1	2156	6846
1	2075	6847
1	1954	6848
1	1811	6849
1	1655	6850
1	1508	6851
1	1392	6852
1	1310	6853
1	1275	6854
1	1270	6855
1	1301	6856
1	1366	6857
1	1472	6858
1	1595	6859
1	1739	6860
1	1895	6861
1	2022	6862
1	2118	6863
1	2172	6864
1	2175	6865
1	2122	6866
1	2017	6867
1	1877	6868
1	1712	6869
1	1556	6870
1	1424	6871
1	1319	6872
1	1247	6873
1	1209	6874
1	1205	6875
1	1246	6876
1	1318	6877
1	1407	6878
1	1517	6879
1	1641	6880
1	1764	6881
1	1873	6882
1	1947	6883
1	1970	6884
1	1953	6885
1	1899	6886
1	1814	6887
1	1697	6888
1	1565	6889
1	1428	6890
1	1303	6891
1	1212	6892
1	1149	6893
1	1124	6894
1	1125	6895
1	1160	6896
1	1230	6897
1	1333	6898
1	1471	6899
1	1615	6900
1	1753	6901
1	1874	6902
1	1967	6903
1	2010	6904
1	2004	6905
1	1948	6906
1	1847	6907
1	1715	6908
1	1571	6909
1	1420	6910
1	1270	6911
1	1150	6912
1	1058	6913
1	995	6914
1	964	6915
1	991	6916
1	1058	6917
1	1164	6918
1	1296	6919
1	1450	6920
1	1603	6921
1	1738	6922
1	1847	6923
1	1906	6924
1	1916	6925
1	1870	6926
1	1782	6927
1	1669	6928
1	1536	6929
1	1405	6930
1	1277	6931
1	1163	6932
1	1084	6933
1	1032	6934
1	1017	6935
1	1041	6936
1	1110	6937
1	1203	6938
1	1341	6939
1	1484	6940
1	1629	6941
1	1751	6942
1	1842	6943
1	1881	6944
1	1877	6945
1	1828	6946
1	1733	6947
1	1619	6948
1	1502	6949
1	1383	6950
1	1274	6951
1	1187	6952
1	1117	6953
1	1070	6954
1	1044	6955
1	1053	6956
1	1100	6957
1	1188	6958
1	1305	6959
1	1450	6960
1	1595	6961
1	1725	6962
1	1833	6963
1	1883	6964
1	1884	6965
1	1835	6966
1	1739	6967
1	1618	6968
1	1476	6969
1	1328	6970
1	1197	6971
1	1090	6972
1	1011	6973
1	950	6974
1	930	6975
1	959	6976
1	1034	6977
1	1145	6978
1	1280	6979
1	1445	6980
1	1613	6981
1	1767	6982
1	1895	6983
1	1974	6984
1	1999	6985
1	1972	6986
1	1895	6987
1	1772	6988
1	1615	6989
1	1442	6990
1	1266	6991
1	1114	6992
1	1005	6993
1	932	6994
1	911	6995
1	942	6996
1	1015	6997
1	1119	6998
1	1258	6999
1	1422	7000
1	1579	7001
1	1712	7002
1	1818	7003
1	1870	7004
1	1872	7005
1	1827	7006
1	1737	7007
1	1626	7008
1	1491	7009
1	1346	7010
1	1215	7011
1	1100	7012
1	1018	7013
1	987	7014
1	1005	7015
1	1070	7016
1	1174	7017
1	1296	7018
1	1437	7019
1	1580	7020
1	1710	7021
1	1819	7022
1	1899	7023
1	1930	7024
1	1909	7025
1	1836	7026
1	1712	7027
1	1568	7028
1	1408	7029
1	1247	7030
1	1110	7031
1	1005	7032
1	932	7033
1	909	7034
1	934	7035
1	1006	7036
1	1117	7037
1	1241	7038
1	1384	7039
1	1550	7040
1	1697	7041
1	1809	7042
1	1870	7043
1	1895	7044
1	1870	7045
1	1795	7046
1	1678	7047
1	1534	7048
1	1362	7049
1	1196	7050
1	1041	7051
1	910	7052
1	824	7053
1	797	7054
1	821	7055
1	882	7056
1	981	7057
1	1107	7058
1	1262	7059
1	1438	7060
1	1606	7061
1	1754	7062
1	1872	7063
1	1931	7064
1	1932	7065
1	1869	7066
1	1759	7067
1	1625	7068
1	1471	7069
1	1317	7070
1	1175	7071
1	1058	7072
1	979	7073
1	929	7074
1	927	7075
1	973	7076
1	1054	7077
1	1158	7078
1	1287	7079
1	1441	7080
1	1594	7081
1	1723	7082
1	1822	7083
1	1865	7084
1	1853	7085
1	1782	7086
1	1667	7087
1	1524	7088
1	1359	7089
1	1204	7090
1	1071	7091
1	972	7092
1	902	7093
1	878	7094
1	900	7095
1	958	7096
1	1058	7097
1	1180	7098
1	1322	7099
1	1486	7100
1	1636	7101
1	1757	7102
1	1845	7103
1	1880	7104
1	1858	7105
1	1787	7106
1	1677	7107
1	1536	7108
1	1366	7109
1	1204	7110
1	1061	7111
1	941	7112
1	862	7113
1	817	7114
1	817	7115
1	869	7116
1	958	7117
1	1076	7118
1	1215	7119
1	1372	7120
1	1529	7121
1	1662	7122
1	1767	7123
1	1826	7124
1	1831	7125
1	1778	7126
1	1674	7127
1	1536	7128
1	1372	7129
1	1210	7130
1	1062	7131
1	938	7132
1	857	7133
1	811	7134
1	816	7135
1	870	7136
1	977	7137
1	1092	7138
1	1229	7139
1	1377	7140
1	1521	7141
1	1644	7142
1	1739	7143
1	1791	7144
1	1791	7145
1	1741	7146
1	1652	7147
1	1521	7148
1	1366	7149
1	1209	7150
1	1071	7151
1	951	7152
1	870	7153
1	823	7154
1	834	7155
1	898	7156
1	1014	7157
1	1162	7158
1	1324	7159
1	1500	7160
1	1656	7161
1	1772	7162
1	1844	7163
1	1859	7164
1	1817	7165
1	1716	7166
1	1584	7167
1	1432	7168
1	1256	7169
1	1098	7170
1	958	7171
1	851	7172
1	783	7173
1	754	7174
1	764	7175
1	815	7176
1	906	7177
1	1036	7178
1	1193	7179
1	1370	7180
1	1541	7181
1	1687	7182
1	1801	7183
1	1865	7184
1	1869	7185
1	1818	7186
1	1720	7187
1	1602	7188
1	1461	7189
1	1314	7190
1	1178	7191
1	1070	7192
1	991	7193
1	942	7194
1	923	7195
1	941	7196
1	1001	7197
1	1084	7198
1	1202	7199
1	1343	7200
1	1490	7201
1	1612	7202
1	1712	7203
1	1762	7204
1	1751	7205
1	1686	7206
1	1585	7207
1	1462	7208
1	1319	7209
1	1176	7210
1	1049	7211
1	932	7212
1	853	7213
1	805	7214
1	796	7215
1	835	7216
1	920	7217
1	1046	7218
1	1188	7219
1	1334	7220
1	1481	7221
1	1602	7222
1	1693	7223
1	1746	7224
1	1754	7225
1	1724	7226
1	1657	7227
1	1557	7228
1	1424	7229
1	1276	7230
1	1131	7231
1	1009	7232
1	924	7233
1	876	7234
1	874	7235
1	919	7236
1	1000	7237
1	1083	7238
1	1196	7239
1	1319	7240
1	1449	7241
1	1557	7242
1	1649	7243
1	1706	7244
1	1724	7245
1	1686	7246
1	1592	7247
1	1450	7248
1	1283	7249
1	1117	7250
1	963	7251
1	846	7252
1	764	7253
1	726	7254
1	743	7255
1	821	7256
1	936	7257
1	1081	7258
1	1214	7259
1	1297	7280
1	1450	7281
1	1587	7282
1	1687	7283
1	1737	7284
1	1736	7285
1	1686	7286
1	1594	7287
1	1467	7288
1	1323	7289
1	1190	7290
1	1071	7291
1	974	7292
1	904	7293
1	860	7294
1	854	7295
1	892	7296
1	975	7297
1	1075	7298
1	1204	7299
1	1374	7260
1	1536	7261
1	1670	7262
1	1767	7263
1	1815	7264
1	1799	7265
1	1734	7266
1	1621	7267
1	1480	7268
1	1319	7269
1	1166	7270
1	1027	7271
1	902	7272
1	810	7273
1	769	7274
1	769	7275
1	819	7276
1	905	7277
1	1018	7278
1	1151	7279
1	1347	7300
1	1503	7301
1	1630	7302
1	1720	7303
1	1772	7304
1	1782	7305
1	1736	7306
1	1647	7307
1	1529	7308
1	1372	7309
1	1215	7310
1	1068	7311
1	938	7312
1	847	7313
1	796	7314
1	787	7315
1	817	7316
1	885	7317
1	986	7318
1	1121	7319
1	1278	7320
1	1431	7321
1	1559	7322
1	1662	7323
1	1712	7324
1	1710	7325
1	1659	7326
1	1563	7327
1	1438	7328
1	1293	7329
1	1152	7330
1	1026	7331
1	909	7332
1	820	7333
1	764	7334
1	760	7335
1	809	7336
1	900	7337
1	1030	7338
1	1188	7339
1	1364	7340
1	1535	7341
1	1668	7342
1	1760	7343
1	1812	7344
1	1809	7345
1	1747	7346
1	1652	7347
1	1528	7348
1	1380	7349
1	1233	7350
1	1094	7351
1	983	7352
1	900	7353
1	867	7354
1	861	7355
1	903	7356
1	972	7357
1	1063	7358
1	1184	7359
1	1319	7360
1	1456	7361
1	1576	7362
1	1661	7363
1	1697	7364
1	1684	7365
1	1621	7366
1	1515	7367
1	1383	7368
1	1237	7369
1	1089	7370
1	964	7371
1	873	7372
1	816	7373
1	805	7374
1	839	7375
1	916	7376
1	1035	7377
1	1176	7378
1	1327	7379
1	1490	7380
1	1626	7381
1	1737	7382
1	1817	7383
1	1835	7384
1	1795	7385
1	1714	7386
1	1599	7387
1	1459	7388
1	1310	7389
1	1166	7390
1	1045	7391
1	949	7392
1	878	7393
1	848	7394
1	850	7395
1	895	7396
1	986	7397
1	1110	7398
1	1255	7399
1	1406	7400
1	1552	7401
1	1671	7402
1	1758	7403
1	1801	7404
1	1791	7405
1	1733	7406
1	1631	7407
1	1499	7408
1	1346	7409
1	1201	7410
1	1073	7411
1	978	7412
1	915	7413
1	900	7414
1	919	7415
1	973	7416
1	1046	7417
1	1135	7418
1	1241	7419
1	1368	7420
1	1494	7421
1	1600	7422
1	1674	7423
1	1715	7424
1	1718	7425
1	1676	7426
1	1593	7427
1	1482	7428
1	1346	7429
1	1212	7430
1	1081	7431
1	963	7432
1	875	7433
1	829	7434
1	824	7435
1	857	7436
1	927	7437
1	1033	7438
1	1162	7439
1	1319	7440
1	1476	7441
1	1612	7442
1	1715	7443
1	1773	7444
1	1773	7445
1	1723	7446
1	1621	7447
1	1500	7448
1	1353	7449
1	1206	7450
1	1078	7451
1	978	7452
1	913	7453
1	909	7454
1	937	7455
1	996	7456
1	1073	7457
1	1181	7458
1	1310	7459
1	1452	7460
1	1593	7461
1	1707	7462
1	1780	7463
1	1813	7464
1	1793	7465
1	1739	7466
1	1657	7467
1	1543	7468
1	1426	7469
1	1292	7470
1	1162	7471
1	1045	7472
1	961	7473
1	914	7474
1	903	7475
1	938	7476
1	1008	7477
1	1094	7478
1	1204	7479
1	1332	7480
1	1474	7481
1	1599	7482
1	1689	7483
1	1738	7484
1	1741	7485
1	1699	7486
1	1617	7487
1	1517	7488
1	1397	7489
1	1267	7490
1	1145	7491
1	1042	7492
1	965	7493
1	932	7494
1	945	7495
1	999	7496
1	1080	7497
1	1181	7498
1	1319	7499
1	1476	7500
1	1637	7501
1	1781	7502
1	1899	7503
1	1965	7504
1	1982	7505
1	1952	7506
1	1878	7507
1	1769	7508
1	1644	7509
1	1503	7510
1	1364	7511
1	1241	7512
1	1147	7513
1	1094	7514
1	1084	7515
1	1112	7516
1	1172	7517
1	1266	7518
1	1395	7519
1	1544	7520
1	1700	7521
1	1845	7522
1	1953	7523
1	2016	7524
1	2025	7525
1	1967	7526
1	1858	7527
1	1705	7528
1	1548	7529
1	1394	7530
1	1243	7531
1	1125	7532
1	1035	7533
1	975	7534
1	942	7535
1	939	7536
1	977	7537
1	1020	7538
1	1078	7539
1	1364	7560
1	1539	7561
1	1688	7562
1	1813	7563
1	1867	7564
1	1857	7565
1	1790	7566
1	1674	7567
1	1530	7568
1	1364	7569
1	1201	7570
1	1055	7571
1	927	7572
1	833	7573
1	798	7574
1	810	7575
1	869	7576
1	970	7577
1	1104	7578
1	1263	7579
1	1445	7580
1	1626	7581
1	1791	7582
1	1922	7583
1	2001	7584
1	2016	7585
1	1974	7586
1	1883	7587
1	1742	7588
1	1594	7589
1	1433	7590
1	1267	7591
1	1123	7592
1	1009	7593
1	929	7594
1	896	7595
1	906	7596
1	963	7597
1	1069	7598
1	1212	7599
1	1376	7600
1	1553	7601
1	1701	7602
1	1809	7603
1	1867	7604
1	1870	7605
1	1824	7606
1	1726	7607
1	1602	7608
1	1454	7609
1	1302	7610
1	1167	7611
1	1058	7612
1	979	7613
1	938	7614
1	950	7615
1	1011	7616
1	1112	7617
1	1242	7618
1	1407	7619
1	1161	7540
1	1249	7541
1	1320	7542
1	1371	7543
1	1381	7544
1	1357	7545
1	1291	7546
1	1188	7547
1	1063	7548
1	927	7549
1	803	7550
1	706	7551
1	641	7552
1	621	7553
1	630	7554
1	673	7555
1	760	7556
1	877	7557
1	1041	7558
1	1188	7559
1	1584	7620
1	1760	7621
1	1901	7622
1	2000	7623
1	2037	7624
1	2013	7625
1	1935	7626
1	1808	7627
1	1645	7628
1	1467	7629
1	1291	7630
1	1134	7631
1	1006	7632
1	913	7633
1	866	7634
1	882	7635
1	940	7636
1	1047	7637
1	1166	7638
1	1319	7639
1	1482	7640
1	1628	7641
1	1763	7642
1	1869	7643
1	1922	7644
1	1926	7645
1	1878	7646
1	1792	7647
1	1675	7648
1	1533	7649
1	1384	7650
1	1247	7651
1	1129	7652
1	1037	7653
1	987	7654
1	979	7655
1	1015	7656
1	1102	7657
1	1215	7658
1	1362	7659
1	1531	7660
1	1692	7661
1	1837	7662
1	1942	7663
1	1988	7664
1	1992	7665
1	1940	7666
1	1836	7667
1	1693	7668
1	1530	7669
1	1364	7670
1	1215	7671
1	1096	7672
1	1019	7673
1	978	7674
1	970	7675
1	1007	7676
1	1079	7677
1	1185	7678
1	1306	7679
1	1464	7680
1	1621	7681
1	1764	7682
1	1886	7683
1	1957	7684
1	1974	7685
1	1943	7686
1	1865	7687
1	1752	7688
1	1620	7689
1	1479	7690
1	1346	7691
1	1236	7692
1	1157	7693
1	1116	7694
1	1121	7695
1	1170	7696
1	1265	7697
1	1398	7698
1	1538	7699
1	1685	7700
1	1823	7701
1	1940	7702
1	2016	7703
1	2047	7704
1	2017	7705
1	1940	7706
1	1823	7707
1	1678	7708
1	1538	7709
1	1400	7710
1	1271	7711
1	1157	7712
1	1072	7713
1	1019	7714
1	1008	7715
1	1045	7716
1	1119	7717
1	1226	7718
1	1367	7719
1	1530	7720
1	1701	7721
1	1856	7722
1	1974	7723
1	2052	7724
1	2079	7725
1	2048	7726
1	1961	7727
1	1840	7728
1	1675	7729
1	1512	7730
1	1358	7731
1	1229	7732
1	1137	7733
1	1085	7734
1	1082	7735
1	1121	7736
1	1209	7737
1	1331	7738
1	1478	7739
1	1641	7740
1	1795	7741
1	1940	7742
1	2052	7743
1	2113	7744
1	2121	7745
1	2071	7746
1	1974	7747
1	1855	7748
1	1698	7749
1	1541	7750
1	1404	7751
1	1288	7752
1	1190	7753
1	1144	7754
1	1131	7755
1	1166	7756
1	1243	7757
1	1351	7758
1	1486	7759
1	1638	7760
1	1794	7761
1	1935	7762
1	2042	7763
1	2105	7764
1	2114	7765
1	2070	7766
1	1980	7767
1	1842	7768
1	1698	7769
1	1548	7770
1	1420	7771
1	1319	7772
1	1265	7773
1	1242	7774
1	1255	7775
1	1302	7776
1	1393	7777
1	1503	7778
1	1634	7779
1	1775	7780
1	1908	7781
1	2018	7782
1	2087	7783
1	2120	7784
1	2103	7785
1	2037	7786
1	1925	7787
1	1788	7788
1	1620	7789
1	1450	7790
1	1293	7791
1	1179	7792
1	1105	7793
1	1069	7794
1	1066	7795
1	1101	7796
1	1175	7797
1	1291	7798
1	1447	7799
1	1625	7800
1	1800	7801
1	1958	7802
1	2084	7803
1	2155	7804
1	2157	7805
1	2089	7806
1	1964	7807
1	1801	7808
1	1625	7809
1	1453	7810
1	1297	7811
1	1170	7812
1	1069	7813
1	1013	7814
1	998	7815
1	1028	7816
1	1101	7817
1	1212	7818
1	1346	7819
1	1503	7820
1	1660	7821
1	1791	7822
1	1890	7823
1	1943	7824
1	1948	7825
1	1901	7826
1	1817	7827
1	1688	7828
1	1557	7829
1	1416	7830
1	1280	7831
1	1161	7832
1	1071	7833
1	1008	7834
1	982	7835
1	1003	7836
1	1071	7837
1	1162	7838
1	1289	7839
1	1517	7860
1	1679	7861
1	1822	7862
1	1936	7863
1	1994	7864
1	2000	7865
1	1952	7866
1	1849	7867
1	1705	7868
1	1546	7869
1	1383	7870
1	1236	7871
1	1117	7872
1	1031	7873
1	995	7874
1	1003	7875
1	1053	7876
1	1141	7877
1	1265	7878
1	1415	7879
1	1439	7840
1	1589	7841
1	1726	7842
1	1832	7843
1	1887	7844
1	1885	7845
1	1832	7846
1	1730	7847
1	1603	7848
1	1453	7849
1	1305	7850
1	1177	7851
1	1079	7852
1	1018	7853
1	987	7854
1	986	7855
1	1024	7856
1	1100	7857
1	1225	7858
1	1348	7859
1	1570	7880
1	1723	7881
1	1856	7882
1	1950	7883
1	1999	7884
1	1994	7885
1	1933	7886
1	1831	7887
1	1681	7888
1	1528	7889
1	1354	7890
1	1199	7891
1	1073	7892
1	996	7893
1	953	7894
1	949	7895
1	995	7896
1	1080	7897
1	1194	7898
1	1344	7899
1	1513	7900
1	1678	7901
1	1832	7902
1	1942	7903
1	2003	7904
1	2007	7905
1	1958	7906
1	1862	7907
1	1737	7908
1	1589	7909
1	1439	7910
1	1297	7911
1	1179	7912
1	1088	7913
1	1034	7914
1	1026	7915
1	1058	7916
1	1136	7917
1	1242	7918
1	1374	7919
1	1530	7920
1	1686	7921
1	1829	7922
1	1944	7923
1	2000	7924
1	2012	7925
1	1973	7926
1	1886	7927
1	1764	7928
1	1626	7929
1	1481	7930
1	1342	7931
1	1220	7932
1	1124	7933
1	1078	7934
1	1079	7935
1	1129	7936
1	1215	7937
1	1338	7938
1	1494	7939
1	1658	7940
1	1817	7941
1	1957	7942
1	2061	7943
1	2117	7944
1	2107	7945
1	2052	7946
1	1947	7947
1	1807	7948
1	1644	7949
1	1472	7950
1	1307	7951
1	1170	7952
1	1062	7953
1	997	7954
1	979	7955
1	1017	7956
1	1110	7957
1	1232	7958
1	1380	7959
1	1590	7980
1	1733	7981
1	1860	7982
1	1952	7983
1	1988	7984
1	1975	7985
1	1913	7986
1	1814	7987
1	1686	7988
1	1553	7989
1	1422	7990
1	1292	7991
1	1189	7992
1	1121	7993
1	1094	7994
1	1103	7995
1	1154	7996
1	1241	7997
1	1366	7998
1	1521	7999
1	1549	7960
1	1712	7961
1	1864	7962
1	1989	7963
1	2052	7964
1	2076	7965
1	2045	7966
1	1970	7967
1	1858	7968
1	1712	7969
1	1557	7970
1	1413	7971
1	1292	7972
1	1206	7973
1	1165	7974
1	1162	7975
1	1191	7976
1	1254	7977
1	1346	7978
1	1451	7979
1	1682	8000
1	1843	8000
1	1976	8002
1	2082	8003
1	2147	8004
1	2155	8005
1	2101	8006
1	1994	8007
1	1836	8008
1	1674	8009
1	1505	8010
1	1346	8011
1	1215	8012
1	1123	8013
1	1071	8013
1	1062	8015
1	1101	8016
1	1179	8016
1	1292	8018
1	1437	8019
1	1706	8040
1	1873	8041
1	2013	8042
1	2113	8043
1	2161	8044
1	2150	8045
1	2080	8045
1	1973	8047
1	1828	8048
1	1660	8048
1	1492	8050
1	1336	8051
1	1215	8052
1	1121	8053
1	1085	8054
1	1084	8055
1	1128	8056
1	1215	8057
1	1331	8058
1	1474	8059
1	1594	8020
1	1751	8021
1	1895	8022
1	2000	8023
1	2063	8024
1	2076	8025
1	2026	8026
1	1933	8027
1	1809	8028
1	1655	8029
1	1491	8029
1	1332	8031
1	1202	8032
1	1112	8032
1	1069	8034
1	1071	8035
1	1121	8036
1	1217	8037
1	1348	8038
1	1523	8039
1	1634	8060
1	1792	8061
1	1939	8061
1	2038	8063
1	2087	8064
1	2080	8064
1	2025	8066
1	1925	8067
1	1778	8068
1	1646	8069
1	1503	8070
1	1363	8071
1	1243	8072
1	1162	8073
1	1109	8074
1	1092	8074
1	1126	8076
1	1206	8077
1	1319	8077
1	1469	8079
1	1646	8100
1	1796	8101
1	1931	8102
1	2032	8103
1	2083	8104
1	2083	8105
1	2030	8106
1	1926	8106
1	1782	8108
1	1624	8109
1	1463	8109
1	1318	8111
1	1196	8112
1	1107	8113
1	1070	8114
1	1065	8115
1	1112	8116
1	1204	8117
1	1330	8118
1	1485	8119
1	1633	8080
1	1794	8080
1	1946	8082
1	2057	8083
1	2117	8084
1	2120	8085
1	2070	8086
1	1971	8087
1	1847	8088
1	1699	8089
1	1552	8090
1	1412	8090
1	1286	8092
1	1191	8093
1	1136	8093
1	1122	8095
1	1166	8096
1	1251	8096
1	1359	8098
1	1490	8099
1	1660	8120
1	1845	8121
1	2004	8122
1	2120	8122
1	2176	8124
1	2165	8125
1	2097	8125
1	1984	8127
1	1828	8128
1	1669	8129
1	1505	8130
1	1354	8131
1	1232	8132
1	1150	8133
1	1110	8134
1	1114	8135
1	1162	8136
1	1250	8137
1	1373	8138
1	1495	8138
1	1649	8140
1	1788	8141
1	1901	8141
1	1983	8143
1	2025	8144
1	2021	8145
1	1963	8146
1	1865	8147
1	1737	8148
1	1589	8149
1	1450	8150
1	1320	8151
1	1216	8152
1	1161	8153
1	1136	8154
1	1152	8154
1	1213	8156
1	1307	8157
1	1448	8157
1	1562	8159
1	1710	8160
1	1856	8161
1	1986	8162
1	2090	8163
1	2138	8164
1	2129	8165
1	2060	8166
1	1946	8167
1	1791	8168
1	1628	8169
1	1463	8170
1	1315	8170
1	1200	8172
1	1114	8173
1	1084	8173
1	1089	8175
1	1135	8176
1	1214	8177
1	1322	8178
1	1458	8179
1	1608	8180
1	1764	8181
1	1910	8182
1	2025	8183
1	2091	8184
1	2101	8185
1	2050	8186
1	1948	8186
1	1791	8188
1	1641	8189
1	1475	8189
1	1316	8191
1	1189	8192
1	1121	8193
1	1089	8194
1	1104	8195
1	1157	8196
1	1248	8197
1	1371	8198
1	1525	8199
1	1683	8200
1	1836	8201
1	1962	8202
1	2061	8203
1	2100	8204
1	2093	8205
1	2026	8206
1	1908	8207
1	1762	8208
1	1590	8209
1	1417	8210
1	1256	8211
1	1130	8212
1	1044	8213
1	1003	8214
1	1005	8215
1	1058	8216
1	1158	8217
1	1294	8218
1	1458	8219
1	1647	8220
1	1834	8221
1	1990	8222
1	2106	8223
1	2163	8224
1	2169	8225
1	2119	8226
1	2021	8227
1	1880	8228
1	1712	8229
1	1548	8230
1	1400	8231
1	1271	8232
1	1165	8233
1	1111	8234
1	1109	8235
1	1148	8236
1	1241	8237
1	1369	8238
1	1530	8239
1	1699	8240
1	1859	8241
1	2001	8242
1	2093	8243
1	2130	8244
1	2106	8245
1	2027	8246
1	1901	8247
1	1729	8248
1	1574	8249
1	1425	8250
1	1298	8251
1	1203	8252
1	1142	8253
1	1115	8254
1	1127	8255
1	1193	8256
1	1298	8257
1	1437	8258
1	1581	8259
1	1701	8300
1	1855	8301
1	1978	8302
1	2066	8303
1	2102	8304
1	2079	8305
1	2004	8306
1	1885	8307
1	1729	8308
1	1559	8309
1	1398	8310
1	1247	8311
1	1136	8312
1	1067	8313
1	1055	8314
1	1073	8315
1	1133	8316
1	1228	8317
1	1360	8318
1	1521	8319
1	1724	8280
1	1853	8281
1	1953	8282
1	2024	8283
1	2039	8284
1	2016	8285
1	1952	8286
1	1854	8287
1	1727	8288
1	1581	8289
1	1430	8290
1	1289	8291
1	1176	8292
1	1110	8293
1	1084	8294
1	1110	8295
1	1173	8296
1	1269	8297
1	1409	8298
1	1539	8299
1	1693	8300
1	1867	8301
1	2009	8302
1	2110	8303
1	2161	8304
1	2156	8305
1	2089	8306
1	1975	8307
1	1823	8308
1	1692	8309
1	1563	8310
1	1450	8311
1	1358	8312
1	1297	8313
1	1265	8314
1	1256	8315
1	1285	8316
1	1346	8317
1	1432	8318
1	1542	8319
1	1670	8320
1	1809	8321
1	1930	8322
1	2025	8323
1	2068	8324
1	2070	8325
1	2028	8326
1	1945	8327
1	1832	8328
1	1680	8329
1	1512	8330
1	1345	8331
1	1202	8332
1	1103	8333
1	1046	8334
1	1032	8335
1	1075	8336
1	1161	8337
1	1281	8338
1	1441	8339
1	1622	8340
1	1795	8341
1	1955	8342
1	2074	8343
1	2144	8344
1	2152	8345
1	2097	8346
1	1998	8347
1	1857	8348
1	1688	8349
1	1525	8350
1	1362	8351
1	1228	8352
1	1110	8353
1	1067	8354
1	1047	8355
1	1075	8356
1	1148	8357
1	1269	8358
1	1430	8359
1	1607	8360
1	1779	8361
1	1930	8362
1	2037	8363
1	2094	8364
1	2104	8365
1	2058	8366
1	1966	8367
1	1817	8368
1	1680	8369
1	1526	8370
1	1392	8371
1	1284	8372
1	1218	8373
1	1184	8374
1	1193	8375
1	1246	8376
1	1334	8377
1	1447	8378
1	1573	8379
1	1712	8380
1	1850	8381
1	1959	8382
1	2026	8383
1	2049	8384
1	2022	8385
1	1940	8386
1	1821	8387
1	1684	8388
1	1537	8389
1	1394	8390
1	1267	8391
1	1172	8392
1	1104	8393
1	1077	8394
1	1081	8395
1	1123	8396
1	1211	8397
1	1323	8398
1	1470	8399
1	1633	8400
1	1796	8401
1	1949	8402
1	2070	8403
1	2126	8404
1	2120	8405
1	2057	8406
1	1946	8407
1	1793	8408
1	1634	8409
1	1476	8410
1	1337	8411
1	1232	8412
1	1163	8413
1	1148	8414
1	1172	8415
1	1241	8416
1	1341	8417
1	1476	8418
1	1620	8419
1	1778	8420
1	1935	8421
1	2068	8422
1	2160	8423
1	2206	8424
1	2198	8425
1	2143	8426
1	2050	8427
1	1908	8428
1	1790	8429
1	1651	8430
1	1532	8431
1	1440	8432
1	1380	8433
1	1357	8434
1	1377	8435
1	1445	8436
1	1557	8437
1	1661	8438
1	1790	8439
1	1924	8440
1	2052	8441
1	2153	8442
1	2219	8443
1	2238	8444
1	2197	8445
1	2107	8446
1	1979	8447
1	1822	8448
1	1645	8449
1	1476	8450
1	1319	8451
1	1191	8452
1	1099	8453
1	1048	8454
1	1032	8455
1	1061	8456
1	1119	8457
1	1224	8458
1	1319	8459
1	1467	8460
1	1608	8461
1	1731	8462
1	1821	8463
1	1854	8464
1	1827	8465
1	1742	8466
1	1618	8467
1	1465	8468
1	1303	8469
1	1153	8470
1	1017	8471
1	908	8472
1	830	8473
1	809	8474
1	824	8475
1	889	8476
1	997	8477
1	1139	8478
1	1319	8479
1	1516	8480
1	1693	8481
1	1847	8482
1	1960	8483
1	2022	8484
1	2028	8485
1	1986	8486
1	1895	8487
1	1751	8488
1	1621	8489
1	1477	8490
1	1343	8491
1	1227	8492
1	1160	8493
1	1121	8494
1	1134	8495
1	1195	8496
1	1297	8497
1	1437	8498
1	1597	8499
1	1769	8500
1	1938	8501
1	2078	8502
1	2183	8503
1	2213	8504
1	2201	8505
1	2133	8506
1	2015	8507
1	1869	8508
1	1694	8509
1	1520	8510
1	1359	8511
1	1241	8512
1	1168	8513
1	1147	8514
1	1168	8515
1	1235	8516
1	1337	8517
1	1475	8518
1	1611	8519
1	1770	8520
1	1929	8521
1	2061	8522
1	2168	8523
1	2215	8524
1	2210	8525
1	2152	8526
1	2042	8527
1	1906	8528
1	1741	8529
1	1581	8530
1	1436	8531
1	1319	8532
1	1238	8533
1	1210	8534
1	1220	8535
1	1274	8536
1	1358	8537
1	1474	8538
1	1611	8539
1	1765	8540
1	1909	8541
1	2042	8542
1	2131	8543
1	2175	8544
1	2170	8545
1	2110	8546
1	2008	8547
1	1856	8548
1	1714	8549
1	1560	8550
1	1420	8551
1	1298	8552
1	1217	8553
1	1177	8554
1	1184	8555
1	1242	8556
1	1334	8557
1	1461	8558
1	1616	8559
1	1791	8560
1	1958	8561
1	2090	8562
1	2188	8563
1	2222	8564
1	2214	8565
1	2152	8566
1	2045	8567
1	1914	8568
1	1764	8569
1	1612	8570
1	1476	8571
1	1353	8572
1	1267	8573
1	1211	8574
1	1194	8575
1	1227	8576
1	1304	8577
1	1431	8578
1	1561	8579
1	1857	8600
1	2026	8601
1	2178	8602
1	2296	8603
1	2354	8604
1	2352	8605
1	2289	8606
1	2179	8607
1	2002	8608
1	1856	8609
1	1672	8610
1	1499	8611
1	1343	8612
1	1232	8613
1	1166	8614
1	1152	8615
1	1193	8616
1	1287	8617
1	1425	8618
1	1598	8619
1	1728	8580
1	1899	8581
1	2052	8582
1	2173	8583
1	2243	8584
1	2253	8585
1	2200	8586
1	2096	8587
1	1949	8588
1	1785	8589
1	1621	8590
1	1471	8591
1	1341	8592
1	1243	8593
1	1219	8594
1	1233	8595
1	1292	8596
1	1393	8597
1	1528	8598
1	1684	8599
1	1787	8620
1	1969	8621
1	2117	8622
1	2222	8623
1	2276	8624
1	2278	8625
1	2215	8626
1	2111	8627
1	1976	8628
1	1824	8629
1	1660	8630
1	1506	8631
1	1373	8632
1	1284	8633
1	1241	8634
1	1251	8635
1	1304	8636
1	1407	8637
1	1543	8638
1	1706	8639
1	1888	8640
1	2051	8641
1	2198	8642
1	2314	8643
1	2368	8644
1	2360	8645
1	2288	8646
1	2173	8647
1	2025	8648
1	1859	8649
1	1693	8650
1	1547	8651
1	1427	8652
1	1327	8653
1	1296	8654
1	1305	8655
1	1359	8656
1	1458	8657
1	1592	8658
1	1750	8659
1	1926	8660
1	2106	8661
1	2276	8662
1	2404	8663
1	2474	8664
1	2476	8665
1	2415	8666
1	2308	8667
1	2131	8668
1	1982	8669
1	1808	8670
1	1644	8671
1	1505	8672
1	1415	8673
1	1356	8674
1	1346	8675
1	1382	8676
1	1463	8677
1	1575	8678
1	1723	8679
1	1847	8700
1	2018	8701
1	2170	8702
1	2300	8703
1	2367	8704
1	2372	8705
1	2314	8706
1	2209	8707
1	2073	8708
1	1920	8709
1	1762	8710
1	1612	8711
1	1482	8712
1	1370	8713
1	1315	8714
1	1294	8715
1	1328	8716
1	1401	8717
1	1508	8718
1	1644	8719
1	1891	8680
1	2045	8681
1	2172	8682
1	2274	8683
1	2314	8684
1	2312	8685
1	2260	8686
1	2157	8687
1	2041	8688
1	1900	8689
1	1752	8690
1	1618	8691
1	1499	8692
1	1410	8693
1	1346	8694
1	1330	8695
1	1354	8696
1	1423	8697
1	1526	8698
1	1672	8699
1	1795	8720
1	1950	8721
1	2088	8722
1	2194	8723
1	2261	8724
1	2268	8725
1	2220	8726
1	2125	8727
1	1974	8728
1	1845	8729
1	1696	8730
1	1554	8731
1	1433	8732
1	1343	8733
1	1280	8734
1	1258	8735
1	1275	8736
1	1333	8737
1	1409	8738
1	1518	8739
1	1652	8740
1	1790	8741
1	1925	8742
1	2027	8743
1	2092	8744
1	2104	8745
1	2064	8746
1	1975	8747
1	1851	8748
1	1693	8749
1	1539	8750
1	1395	8751
1	1274	8752
1	1188	8753
1	1136	8754
1	1130	8755
1	1164	8756
1	1241	8757
1	1372	8758
1	1490	8759
1	1654	8760
1	1819	8761
1	1957	8762
1	2066	8763
1	2109	8764
1	2101	8765
1	2034	8766
1	1926	8767
1	1788	8768
1	1636	8769
1	1485	8770
1	1346	8771
1	1230	8772
1	1138	8773
1	1106	8774
1	1111	8775
1	1171	8776
1	1271	8777
1	1411	8778
1	1575	8779
1	1752	8780
1	1926	8781
1	2071	8782
1	2174	8783
1	2222	8784
1	2210	8785
1	2143	8786
1	2026	8787
1	1851	8788
1	1687	8789
1	1513	8790
1	1345	8791
1	1209	8792
1	1120	8793
1	1071	8794
1	1075	8795
1	1123	8796
1	1215	8797
1	1332	8798
1	1493	8799
1	1664	8800
1	1837	8801
1	1969	8802
1	2061	8803
1	2097	8804
1	2089	8805
1	2029	8806
1	1926	8807
1	1795	8808
1	1642	8809
1	1490	8810
1	1343	8811
1	1223	8812
1	1141	8813
1	1110	8814
1	1117	8815
1	1175	8816
1	1276	8817
1	1426	8818
1	1579	8819
1	1766	8840
1	1914	8841
1	2053	8842
1	2139	8843
1	2175	8844
1	2157	8845
1	2087	8846
1	1975	8847
1	1812	8848
1	1663	8849
1	1503	8850
1	1349	8851
1	1227	8852
1	1137	8853
1	1096	8854
1	1099	8855
1	1162	8856
1	1266	8857
1	1400	8858
1	1559	8859
1	1752	8820
1	1917	8821
1	2050	8822
1	2147	8823
1	2183	8824
1	2156	8825
1	2071	8826
1	1945	8827
1	1791	8828
1	1636	8829
1	1489	8830
1	1359	8831
1	1261	8832
1	1184	8833
1	1157	8834
1	1166	8835
1	1228	8836
1	1331	8837
1	1456	8838
1	1606	8839
1	1733	8860
1	1899	8861
1	2032	8862
1	2135	8863
1	2169	8864
1	2157	8865
1	2088	8866
1	1969	8867
1	1829	8868
1	1669	8869
1	1512	8870
1	1368	8871
1	1249	8872
1	1165	8873
1	1119	8874
1	1121	8875
1	1165	8876
1	1261	8877
1	1416	8878
1	1558	8879
1	1746	8880
1	1935	8881
1	2095	8882
1	2232	8883
1	2298	8884
1	2302	8885
1	2240	8886
1	2126	8887
1	1979	8888
1	1823	8889
1	1656	8890
1	1497	8891
1	1351	8892
1	1229	8893
1	1165	8894
1	1136	8895
1	1155	8896
1	1220	8897
1	1333	8898
1	1484	8899
1	1654	8900
1	1825	8901
1	1972	8902
1	2078	8903
1	2128	8904
1	2120	8905
1	2063	8906
1	1963	8907
1	1818	8908
1	1686	8909
1	1534	8910
1	1395	8911
1	1271	8912
1	1199	8913
1	1162	8914
1	1171	8915
1	1229	8916
1	1322	8917
1	1445	8918
1	1589	8919
1	1752	8920
1	1917	8921
1	2054	8922
1	2155	8923
1	2194	8924
1	2186	8925
1	2127	8926
1	2012	8927
1	1869	8928
1	1699	8929
1	1535	8930
1	1380	8931
1	1257	8932
1	1171	8933
1	1129	8934
1	1141	8935
1	1202	8936
1	1306	8937
1	1450	8938
1	1607	8939
1	1774	8940
1	1934	8941
1	2060	8942
1	2152	8943
1	2202	8944
1	2196	8945
1	2140	8946
1	2051	8947
1	1909	8948
1	1747	8949
1	1582	8950
1	1429	8951
1	1305	8952
1	1202	8953
1	1164	8954
1	1153	8955
1	1177	8956
1	1251	8957
1	1372	8958
1	1517	8959
1	1680	8960
1	1840	8961
1	1972	8962
1	2068	8963
1	2113	8964
1	2106	8965
1	2048	8966
1	1949	8967
1	1789	8968
1	1672	8969
1	1535	8970
1	1418	8971
1	1317	8972
1	1248	8973
1	1215	8974
1	1215	8975
1	1251	8976
1	1324	8977
1	1435	8978
1	1577	8979
1	1733	8980
1	1880	8981
1	2004	8982
1	2088	8983
1	2119	8984
1	2105	8985
1	2035	8986
1	1926	8987
1	1792	8988
1	1645	8989
1	1503	8990
1	1377	8991
1	1279	8992
1	1205	8993
1	1186	8994
1	1202	8995
1	1260	8996
1	1347	8997
1	1469	8998
1	1618	8999
1	1787	9000
1	1955	9001
1	2105	9002
1	2222	9003
1	2280	9004
1	2273	9005
1	2199	9006
1	2084	9007
1	1935	9008
1	1752	9009
1	1569	9010
1	1397	9011
1	1253	9012
1	1135	9013
1	1082	9014
1	1070	9015
1	1116	9016
1	1215	9017
1	1351	9018
1	1510	9019
1	1673	9020
1	1832	9021
1	1976	9022
1	2091	9023
1	2161	9024
1	2182	9025
1	2135	9026
1	2042	9027
1	1877	9028
1	1738	9029
1	1571	9030
1	1415	9031
1	1279	9032
1	1191	9033
1	1139	9034
1	1133	9035
1	1173	9036
1	1276	9037
1	1409	9038
1	1570	9039
1	1755	9040
1	1922	9041
1	2058	9042
1	2148	9043
1	2187	9044
1	2168	9045
1	2086	9046
1	1961	9047
1	1814	9048
1	1643	9049
1	1489	9050
1	1346	9051
1	1237	9052
1	1161	9053
1	1124	9054
1	1137	9055
1	1210	9056
1	1319	9057
1	1494	9058
1	1619	9059
1	1790	9060
1	1945	9061
1	2066	9062
1	2157	9063
1	2194	9064
1	2183	9065
1	2129	9066
1	2035	9067
1	1913	9068
1	1766	9069
1	1622	9070
1	1489	9071
1	1371	9072
1	1267	9073
1	1223	9074
1	1206	9075
1	1233	9076
1	1302	9077
1	1415	9078
1	1542	9079
1	1679	9080
1	1823	9081
1	1951	9082
1	2039	9083
1	2070	9084
1	2053	9085
1	1989	9086
1	1881	9087
1	1723	9088
1	1602	9089
1	1476	9090
1	1359	9091
1	1267	9092
1	1216	9093
1	1193	9094
1	1212	9095
1	1269	9096
1	1369	9097
1	1495	9098
1	1643	9099
1	1798	9100
1	1947	9101
1	2066	9102
1	2152	9103
1	2170	9104
1	2143	9105
1	2066	9106
1	1953	9107
1	1822	9108
1	1662	9109
1	1510	9110
1	1372	9111
1	1267	9112
1	1192	9113
1	1160	9114
1	1166	9115
1	1220	9116
1	1309	9117
1	1443	9118
1	1580	9119
1	1741	9120
1	1904	9121
1	2047	9122
1	2164	9123
1	2236	9124
1	2262	9125
1	2233	9126
1	2157	9127
1	2050	9128
1	1903	9129
1	1733	9130
1	1566	9131
1	1422	9132
1	1278	9133
1	1215	9134
1	1201	9135
1	1235	9136
1	1310	9137
1	1432	9138
1	1593	9139
1	1782	9140
1	1952	9141
1	2110	9142
1	2219	9143
1	2271	9144
1	2247	9145
1	2157	9146
1	2026	9147
1	1849	9148
1	1699	9149
1	1531	9150
1	1374	9151
1	1249	9152
1	1161	9153
1	1107	9154
1	1103	9155
1	1141	9156
1	1215	9157
1	1315	9158
1	1458	9159
1	1622	9160
1	1792	9161
1	1953	9162
1	2090	9163
1	2146	9164
1	2165	9165
1	2131	9166
1	2053	9167
1	1948	9168
1	1815	9169
1	1672	9170
1	1549	9171
1	1449	9172
1	1384	9173
1	1350	9174
1	1353	9175
1	1395	9176
1	1462	9177
1	1572	9178
1	1674	9179
1	1813	9180
1	1941	9181
1	2052	9182
1	2137	9183
1	2170	9184
1	2152	9185
1	2083	9186
1	1977	9187
1	1847	9188
1	1699	9189
1	1553	9190
1	1422	9191
1	1307	9192
1	1229	9193
1	1210	9194
1	1219	9195
1	1272	9196
1	1359	9197
1	1490	9198
1	1633	9199
1	1800	9200
1	1976	9201
1	2135	9202
1	2266	9203
1	2341	9204
1	2345	9205
1	2287	9206
1	2168	9207
1	1977	9208
1	1823	9209
1	1639	9210
1	1481	9211
1	1350	9212
1	1267	9213
1	1229	9214
1	1229	9215
1	1277	9216
1	1359	9217
1	1476	9218
1	1608	9219
1	1819	9240
1	1979	9241
1	2112	9242
1	2199	9243
1	2230	9244
1	2192	9245
1	2103	9246
1	1974	9247
1	1816	9248
1	1637	9249
1	1471	9250
1	1321	9251
1	1201	9252
1	1106	9253
1	1081	9254
1	1092	9255
1	1145	9256
1	1241	9257
1	1383	9258
1	1545	9259
1	1760	9240
1	1908	9241
1	2039	9242
1	2143	9243
1	2183	9244
1	2179	9245
1	2123	9246
1	2025	9247
1	1904	9248
1	1773	9249
1	1636	9250
1	1508	9251
1	1392	9252
1	1292	9253
1	1228	9254
1	1217	9255
1	1256	9256
1	1346	9257
1	1476	9258
1	1639	9259
1	1891	9300
1	2006	9301
1	2102	9302
1	2161	9303
1	2195	9304
1	2176	9305
1	2120	9306
1	2032	9307
1	1931	9308
1	1821	9309
1	1702	9310
1	1593	9311
1	1503	9312
1	1432	9313
1	1412	9314
1	1426	9315
1	1487	9316
1	1585	9317
1	1710	9318
1	1844	9319
1	1843	9280
1	2000	9281
1	2125	9282
1	2210	9283
1	2238	9284
1	2214	9285
1	2140	9286
1	2025	9287
1	1880	9288
1	1719	9289
1	1571	9290
1	1450	9291
1	1359	9292
1	1307	9293
1	1302	9294
1	1332	9295
1	1400	9296
1	1494	9297
1	1611	9298
1	1751	9299
1	1727	9260
1	1904	9261
1	2050	9262
1	2157	9263
1	2208	9264
1	2204	9265
1	2144	9266
1	2034	9267
1	1862	9268
1	1729	9269
1	1574	9270
1	1440	9271
1	1332	9272
1	1268	9273
1	1245	9274
1	1262	9275
1	1319	9276
1	1413	9277
1	1533	9278
1	1679	9279
1	1975	9320
1	2106	9321
1	2218	9322
1	2300	9323
1	2329	9324
1	2302	9325
1	2214	9326
1	2085	9327
1	1899	9328
1	1751	9329
1	1573	9330
1	1404	9331
1	1259	9332
1	1151	9333
1	1083	9334
1	1056	9335
1	1073	9336
1	1136	9337
1	1217	9338
1	1333	9339
1	1489	9340
1	1631	9341
1	1754	9342
1	1843	9343
1	1868	9344
1	1827	9345
1	1728	9346
1	1593	9347
1	1444	9348
1	1282	9349
1	1148	9350
1	1035	9351
1	961	9352
1	924	9353
1	922	9354
1	972	9355
1	1063	9356
1	1191	9357
1	1395	9358
1	1529	9359
1	1719	9360
1	1895	9361
1	2048	9362
1	2172	9363
1	2236	9364
1	2247	9365
1	2208	9366
1	2123	9367
1	1996	9368
1	1840	9369
1	1673	9370
1	1513	9371
1	1372	9372
1	1249	9373
1	1202	9374
1	1188	9375
1	1216	9376
1	1285	9377
1	1400	9378
1	1535	9379
1	1691	9380
1	1842	9381
1	1967	9382
1	2054	9383
1	2097	9384
1	2082	9385
1	2015	9386
1	1908	9387
1	1753	9388
1	1645	9389
1	1530	9390
1	1431	9391
1	1346	9392
1	1301	9393
1	1298	9394
1	1330	9395
1	1395	9396
1	1474	9397
1	1572	9398
1	1697	9399
1	1838	9400
1	1974	9401
1	2090	9402
1	2183	9403
1	2210	9404
1	2202	9405
1	2143	9406
1	2041	9407
1	1920	9408
1	1778	9409
1	1634	9410
1	1493	9411
1	1371	9412
1	1283	9413
1	1237	9414
1	1230	9415
1	1269	9416
1	1350	9417
1	1485	9418
1	1619	9419
1	1791	9420
1	1961	9421
1	2106	9422
1	2236	9423
1	2294	9424
1	2310	9425
1	2273	9426
1	2179	9427
1	2050	9428
1	1892	9429
1	1724	9430
1	1574	9431
1	1450	9432
1	1341	9433
1	1299	9434
1	1301	9435
1	1357	9436
1	1458	9437
1	1580	9438
1	1735	9439
1	1895	9440
1	2026	9441
1	2153	9442
1	2234	9443
1	2264	9444
1	2237	9445
1	2156	9446
1	2031	9447
1	1860	9448
1	1721	9449
1	1564	9450
1	1425	9451
1	1312	9452
1	1243	9453
1	1219	9454
1	1249	9455
1	1323	9456
1	1427	9457
1	1555	9458
1	1711	9459
1	1878	9460
1	2034	9461
1	2172	9462
1	2276	9463
1	2301	9464
1	2279	9465
1	2198	9466
1	2081	9467
1	1933	9468
1	1775	9469
1	1619	9470
1	1476	9471
1	1346	9472
1	1259	9473
1	1214	9474
1	1216	9475
1	1268	9476
1	1357	9477
1	1504	9478
1	1634	9479
1	1814	9480
1	1986	9481
1	2137	9482
1	2257	9483
1	2327	9484
1	2341	9485
1	2300	9486
1	2214	9487
1	2097	9488
1	1965	9489
1	1831	9490
1	1694	9491
1	1569	9492
1	1476	9493
1	1398	9494
1	1364	9495
1	1382	9496
1	1450	9497
1	1548	9498
1	1687	9499
1	1847	9500
1	2000	9501
1	2132	9502
1	2232	9503
1	2275	9504
1	2266	9505
1	2192	9506
1	2084	9507
1	1911	9508
1	1776	9509
1	1625	9510
1	1497	9511
1	1398	9512
1	1343	9513
1	1328	9514
1	1346	9515
1	1410	9516
1	1502	9517
1	1622	9518
1	1765	9519
1	1924	9520
1	2078	9521
1	2210	9522
1	2326	9523
1	2368	9524
1	2384	9525
1	2350	9526
1	2273	9527
1	2148	9528
1	2001	9529
1	1839	9530
1	1672	9531
1	1529	9532
1	1426	9533
1	1359	9534
1	1345	9535
1	1381	9536
1	1466	9537
1	1581	9538
1	1737	9539
1	1899	9540
1	2066	9541
1	2210	9542
1	2327	9543
1	2390	9544
1	2392	9545
1	2336	9546
1	2236	9547
1	2097	9548
1	1949	9549
1	1800	9550
1	1661	9551
1	1547	9552
1	1450	9553
1	1424	9554
1	1424	9555
1	1467	9556
1	1549	9557
1	1657	9558
1	1796	9559
1	1948	9560
1	2096	9561
1	2232	9562
1	2327	9563
1	2377	9564
1	2372	9565
1	2315	9566
1	2212	9567
1	2043	9568
1	1922	9569
1	1777	9570
1	1652	9571
1	1557	9572
1	1497	9573
1	1465	9574
1	1465	9575
1	1503	9576
1	1581	9577
1	1688	9578
1	1829	9579
1	1978	9580
1	2123	9581
1	2255	9582
1	2345	9583
1	2377	9584
1	2362	9585
1	2288	9586
1	2168	9587
1	2018	9588
1	1864	9589
1	1709	9590
1	1581	9591
1	1480	9592
1	1410	9593
1	1356	9594
1	1346	9595
1	1382	9596
1	1456	9597
1	1567	9598
1	1710	9599
1	1869	9600
1	2026	9601
1	2163	9602
1	2267	9603
1	2332	9604
1	2337	9605
1	2287	9606
1	2183	9607
1	2043	9608
1	1870	9609
1	1687	9610
1	1521	9611
1	1372	9612
1	1266	9613
1	1194	9614
1	1172	9615
1	1194	9616
1	1265	9617
1	1373	9618
1	1529	9619
1	1686	9620
1	1840	9621
1	1960	9622
1	2043	9623
1	2085	9624
1	2079	9625
1	2030	9626
1	1953	9627
1	1854	9628
1	1727	9629
1	1612	9630
1	1499	9631
1	1394	9632
1	1299	9633
1	1241	9634
1	1214	9635
1	1233	9636
1	1304	9637
1	1398	9638
1	1528	9639
1	1674	9640
1	1826	9641
1	1948	9642
1	2034	9643
1	2068	9644
1	2048	9645
1	1975	9646
1	1869	9647
1	1733	9648
1	1589	9649
1	1451	9650
1	1332	9651
1	1251	9652
1	1201	9653
1	1186	9654
1	1207	9655
1	1272	9656
1	1370	9657
1	1490	9658
1	1628	9659
1	1785	9660
1	1948	9661
1	2076	9662
1	2153	9663
1	2175	9664
1	2131	9665
1	2034	9666
1	1904	9667
1	1747	9668
1	1580	9669
1	1416	9670
1	1274	9671
1	1175	9672
1	1116	9673
1	1089	9674
1	1108	9675
1	1171	9676
1	1268	9677
1	1398	9678
1	1555	9679
1	1726	9680
1	1895	9681
1	2035	9682
1	2135	9683
1	2192	9684
1	2196	9685
1	2143	9686
1	2045	9687
1	1922	9688
1	1770	9689
1	1626	9690
1	1488	9691
1	1359	9692
1	1265	9693
1	1207	9694
1	1188	9695
1	1215	9696
1	1283	9697
1	1384	9698
1	1523	9699
1	1672	9700
1	1826	9701
1	1955	9702
1	2048	9703
1	2088	9704
1	2084	9705
1	2026	9706
1	1921	9707
1	1779	9708
1	1641	9709
1	1503	9710
1	1384	9711
1	1292	9712
1	1220	9713
1	1181	9714
1	1179	9715
1	1219	9716
1	1292	9717
1	1405	9718
1	1541	9719
1	1697	9720
1	1855	9721
1	1993	9722
1	2093	9723
1	2149	9724
1	2142	9725
1	2079	9726
1	1974	9727
1	1842	9728
1	1686	9729
1	1535	9730
1	1398	9731
1	1287	9732
1	1215	9733
1	1164	9734
1	1155	9735
1	1188	9736
1	1256	9737
1	1359	9738
1	1504	9739
1	1667	9740
1	1818	9741
1	1963	9742
1	2071	9743
1	2130	9744
1	2144	9745
1	2105	9746
1	2017	9747
1	1905	9748
1	1764	9749
1	1624	9750
1	1497	9751
1	1392	9752
1	1310	9753
1	1269	9754
1	1263	9755
1	1299	9756
1	1359	9757
1	1454	9758
1	1581	9759
1	1728	9760
1	1880	9761
1	2012	9762
1	2102	9763
1	2129	9764
1	2106	9765
1	2039	9766
1	1922	9767
1	1766	9768
1	1612	9769
1	1461	9770
1	1332	9771
1	1232	9772
1	1162	9773
1	1123	9774
1	1129	9775
1	1182	9776
1	1276	9777
1	1409	9778
1	1557	9779
1	1725	9780
1	1883	9781
1	2014	9782
1	2100	9783
1	2138	9784
1	2115	9785
1	2041	9786
1	1929	9787
1	1787	9788
1	1636	9789
1	1498	9790
1	1371	9791
1	1269	9792
1	1217	9793
1	1191	9794
1	1207	9795
1	1262	9796
1	1346	9797
1	1472	9798
1	1625	9799
1	1789	9800
1	1944	9801
1	2070	9802
1	2154	9803
1	2184	9804
1	2162	9805
1	2092	9806
1	1982	9807
1	1854	9808
1	1710	9809
1	1581	9810
1	1463	9811
1	1359	9812
1	1291	9813
1	1243	9814
1	1237	9815
1	1267	9816
1	1332	9817
1	1437	9818
1	1560	9819
1	1693	9820
1	1823	9821
1	1929	9822
1	2000	9823
1	2015	9824
1	1988	9825
1	1922	9826
1	1828	9827
1	1701	9828
1	1581	9829
1	1453	9830
1	1335	9831
1	1247	9832
1	1189	9833
1	1178	9834
1	1219	9835
1	1282	9836
1	1398	9837
1	1539	9838
1	1699	9839
1	1859	9840
1	2000	9841
1	2115	9842
1	2186	9843
1	2207	9844
1	2161	9845
1	2061	9846
1	1922	9847
1	1754	9848
1	1592	9849
1	1438	9850
1	1309	9851
1	1216	9852
1	1167	9853
1	1144	9854
1	1161	9855
1	1211	9856
1	1296	9857
1	1417	9858
1	1569	9859
1	1729	9860
1	1888	9861
1	2016	9862
1	2107	9863
1	2148	9864
1	2133	9865
1	2067	9866
1	1960	9867
1	1820	9868
1	1660	9869
1	1503	9870
1	1356	9871
1	1242	9872
1	1174	9873
1	1146	9874
1	1161	9875
1	1225	9876
1	1328	9877
1	1465	9878
1	1629	9879
1	1796	9880
1	1955	9881
1	2076	9882
1	2145	9883
1	2156	9884
1	2115	9885
1	2026	9886
1	1895	9887
1	1736	9888
1	1572	9889
1	1411	9890
1	1265	9891
1	1152	9892
1	1091	9893
1	1081	9894
1	1119	9895
1	1201	9896
1	1316	9897
1	1454	9898
1	1616	9899
1	1773	9900
1	1914	9901
1	2025	9902
1	2091	9903
1	2114	9904
1	2081	9905
1	2011	9906
1	1896	9907
1	1755	9908
1	1608	9909
1	1476	9910
1	1356	9911
1	1267	9912
1	1215	9913
1	1186	9914
1	1200	9915
1	1256	9916
1	1341	9917
1	1454	9918
1	1592	9919
1	1729	9920
1	1864	9921
1	1976	9922
1	2058	9923
1	2099	9924
1	2094	9925
1	2039	9926
1	1939	9927
1	1803	9928
1	1658	9929
1	1521	9930
1	1412	9931
1	1332	9932
1	1292	9933
1	1280	9934
1	1293	9935
1	1338	9936
1	1433	9937
1	1521	9938
1	1637	9939
1	1754	9940
1	1881	9941
1	1976	9942
1	2050	9943
1	2079	9944
1	2066	9945
1	2007	9946
1	1908	9947
1	1777	9948
1	1626	9949
1	1472	9950
1	1332	9951
1	1223	9952
1	1144	9953
1	1105	9954
1	1109	9955
1	1154	9956
1	1238	9957
1	1353	9958
1	1495	9959
1	1657	9960
1	1827	9961
1	1980	9962
1	2094	9963
1	2157	9964
1	2149	9965
1	2084	9966
1	1974	9967
1	1839	9968
1	1681	9969
1	1533	9970
1	1399	9971
1	1281	9972
1	1197	9973
1	1147	9974
1	1140	9975
1	1178	9976
1	1260	9977
1	1376	9978
1	1530	9979
1	1691	9980
1	1851	9981
1	1986	9982
1	2084	9983
1	2137	9984
1	2132	9985
1	2077	9986
1	1969	9987
1	1820	9988
1	1652	9989
1	1503	9990
1	1370	9991
1	1265	9992
1	1198	9993
1	1176	9994
1	1193	9995
1	1254	9996
1	1353	9997
1	1490	9998
1	1659	9999
1	1843	10000
1	2012	10001
1	2149	10002
1	2238	10003
1	2258	10004
1	2214	10005
1	2122	10006
1	1986	10007
1	1818	10008
1	1646	10009
1	1467	10010
1	1307	10011
1	1181	10012
1	1105	10013
1	1083	10014
1	1114	10015
1	1191	10016
1	1304	10017
1	1449	10018
1	1603	10019
1	1780	10020
1	1946	10021
1	2070	10022
1	2133	10023
1	2148	10024
1	2102	10025
1	2006	10026
1	1883	10027
1	1742	10028
1	1607	10029
1	1484	10030
1	1372	10031
1	1285	10032
1	1227	10033
1	1201	10034
1	1220	10035
1	1276	10036
1	1359	10037
1	1484	10038
1	1618	10039
1	1770	10040
1	1908	10041
1	2035	10042
1	2120	10043
1	2162	10044
1	2143	10045
1	2066	10046
1	1950	10047
1	1816	10048
1	1667	10049
1	1529	10050
1	1404	10051
1	1293	10052
1	1222	10053
1	1188	10054
1	1201	10055
1	1269	10056
1	1377	10057
1	1530	10058
1	1715	10059
1	1901	10060
1	2061	10061
1	2181	10062
1	2251	10063
1	2260	10064
1	2210	10065
1	2117	10066
1	1986	10067
1	1832	10068
1	1668	10069
1	1500	10070
1	1335	10071
1	1202	10072
1	1110	10073
1	1063	10074
1	1071	10075
1	1135	10076
1	1239	10077
1	1373	10078
1	1538	10079
1	1712	10080
1	1881	10081
1	2021	10082
1	2118	10083
1	2165	10084
1	2146	10085
1	2064	10086
1	1937	10087
1	1780	10088
1	1611	10089
1	1450	10090
1	1306	10091
1	1194	10092
1	1129	10093
1	1094	10094
1	1108	10095
1	1170	10096
1	1267	10097
1	1400	10098
1	1563	10099
1	1725	10100
1	1881	10101
1	2012	10102
1	2104	10103
1	2142	10104
1	2120	10105
1	2048	10106
1	1926	10107
1	1770	10108
1	1610	10109
1	1456	10110
1	1322	10111
1	1219	10112
1	1153	10113
1	1131	10114
1	1150	10115
1	1215	10116
1	1316	10117
1	1451	10118
1	1626	10119
1	1829	10120
1	2019	10121
1	2179	10122
1	2289	10123
1	2318	10124
1	2278	10125
1	2172	10126
1	2026	10127
1	1848	10128
1	1672	10129
1	1503	10130
1	1354	10131
1	1238	10132
1	1157	10133
1	1110	10134
1	1123	10135
1	1167	10136
1	1260	10137
1	1380	10138
1	1530	10139
1	1690	10140
1	1852	10141
1	1988	10142
1	2088	10143
1	2144	10144
1	2136	10145
1	2082	10146
1	1985	10147
1	1854	10148
1	1697	10149
1	1555	10150
1	1436	10151
1	1337	10152
1	1268	10153
1	1235	10154
1	1242	10155
1	1296	10156
1	1398	10157
1	1541	10158
1	1713	10159
1	1903	10160
1	2078	10161
1	2222	10162
1	2332	10163
1	2391	10164
1	2384	10165
1	2319	10166
1	2208	10167
1	2066	10168
1	1908	10169
1	1749	10170
1	1600	10171
1	1476	10172
1	1377	10173
1	1328	10174
1	1319	10175
1	1350	10176
1	1419	10177
1	1501	10178
1	1615	10179
1	1747	10180
1	1881	10181
1	1994	10182
1	2066	10183
1	2074	10184
1	2027	10185
1	1927	10186
1	1782	10187
1	1607	10188
1	1425	10189
