#Date:= 2024-10-01T15:14:31.968602
#Sampling Rate(Hz):= 1000
#Labels:= LOD	ECG	TS
1	2776	20
1	2784	21
1	2773	22
1	1933	23
1	1828	24
1	1724	25
1	1644	26
1	1586	27
1	1555	28
1	1553	29
1	1570	30
1	1594	31
1	1620	32
1	1652	33
1	1692	34
1	1756	35
1	1849	36
1	1955	37
1	2036	38
1	2082	39
1	2100	60
1	2066	61
1	1994	62
1	1883	63
1	1764	64
1	1666	65
1	1594	66
1	1537	67
1	1493	68
1	1473	69
1	1476	70
1	1490	71
1	1529	72
1	1573	73
1	1633	74
1	1712	75
1	1817	76
1	1922	77
1	2011	78
1	2071	79
1	2093	80
1	2071	81
1	2018	82
1	1914	83
1	1800	84
1	1703	85
1	1625	86
1	1557	87
1	1506	88
1	1478	89
1	1479	90
1	1507	91
1	1546	92
1	1593	93
1	1647	94
1	1723	95
1	1823	96
1	1930	97
1	2021	98
1	2079	99
1	2093	80
1	2067	81
1	1994	82
1	1888	83
1	1777	84
1	1690	85
1	1621	86
1	1582	87
1	1555	88
1	1547	89
1	1555	90
1	1579	91
1	1607	92
1	1643	93
1	1687	94
1	1760	95
1	1856	96
1	1946	97
1	2019	98
1	2071	99
1	2105	100
1	2090	101
1	2032	102
1	1944	103
1	1847	104
1	1762	105
1	1688	106
1	1623	107
1	1573	108
1	1549	109
1	1548	110
1	1566	111
1	1605	112
1	1643	113
1	1693	114
1	1769	115
1	1867	116
1	1959	117
1	2036	118
1	2084	119
1	2099	120
1	2068	121
1	1993	122
1	1882	123
1	1769	124
1	1686	125
1	1618	126
1	1575	127
1	1531	128
1	1503	129
1	1508	130
1	1527	131
1	1569	132
1	1611	133
1	1665	134
1	1739	135
1	1832	136
1	1913	137
1	1985	138
1	2030	139
1	2043	140
1	2014	141
1	1948	142
1	1855	143
1	1750	144
1	1674	145
1	1608	146
1	1564	147
1	1533	148
1	1521	149
1	1531	150
1	1556	151
1	1589	152
1	1625	153
1	1665	154
1	1733	155
1	1818	156
1	1914	157
1	1995	158
1	2051	159
1	2074	160
1	2061	161
1	2007	162
1	1909	163
1	1803	164
1	1712	165
1	1634	166
1	1566	167
1	1528	168
1	1512	169
1	1523	170
1	1548	171
1	1592	172
1	1632	173
1	1676	174
1	1748	175
1	1844	176
1	1946	177
1	2026	178
1	2081	179
1	2079	200
1	2063	201
1	2007	202
1	1908	203
1	1796	204
1	1703	205
1	1629	206
1	1575	207
1	1535	208
1	1521	209
1	1530	210
1	1559	211
1	1594	212
1	1643	213
1	1699	214
1	1780	215
1	1878	216
1	1984	217
1	2066	218
1	2117	219
1	2102	180
1	2079	181
1	2017	182
1	1922	183
1	1817	184
1	1712	185
1	1622	186
1	1554	187
1	1492	188
1	1452	189
1	1445	190
1	1456	191
1	1490	192
1	1532	193
1	1584	194
1	1665	195
1	1769	196
1	1880	197
1	1976	198
1	2049	199
1	2130	220
1	2105	221
1	2046	222
1	1944	223
1	1842	224
1	1740	225
1	1664	226
1	1605	227
1	1555	228
1	1533	229
1	1539	230
1	1560	231
1	1600	232
1	1638	233
1	1688	234
1	1764	235
1	1859	236
1	1960	237
1	2037	238
1	2091	239
1	2112	240
1	2088	241
1	2022	242
1	1929	243
1	1827	244
1	1739	245
1	1674	246
1	1633	247
1	1596	248
1	1579	249
1	1582	250
1	1603	251
1	1634	252
1	1661	253
1	1697	254
1	1755	255
1	1837	256
1	1916	257
1	1989	258
1	2038	259
1	2053	260
1	2026	261
1	1963	262
1	1860	263
1	1742	264
1	1649	265
1	1571	266
1	1515	267
1	1476	268
1	1463	269
1	1476	270
1	1506	271
1	1541	272
1	1581	273
1	1632	274
1	1706	275
1	1802	276
1	1907	277
1	1985	278
1	2040	279
1	2064	280
1	2043	281
1	1987	282
1	1895	283
1	1800	284
1	1724	285
1	1661	286
1	1618	287
1	1593	288
1	1584	289
1	1594	290
1	1603	291
1	1629	292
1	1658	293
1	1697	294
1	1762	295
1	1852	296
1	1939	297
1	2012	298
1	2056	299
1	2065	300
1	2032	301
1	1959	302
1	1854	303
1	1741	304
1	1647	305
1	1572	306
1	1515	307
1	1469	308
1	1450	309
1	1453	310
1	1477	311
1	1520	312
1	1571	313
1	1632	314
1	1715	315
1	1819	316
1	1921	317
1	2013	318
1	2081	319
1	2107	320
1	2092	321
1	2035	322
1	1919	323
1	1791	324
1	1678	325
1	1584	326
1	1515	327
1	1466	328
1	1448	329
1	1461	330
1	1501	331
1	1551	332
1	1607	333
1	1679	334
1	1770	335
1	1878	336
1	1981	337
1	2065	338
1	2117	339
1	2127	340
1	2091	341
1	2017	342
1	1909	343
1	1808	344
1	1728	345
1	1672	346
1	1644	347
1	1634	348
1	1651	349
1	1689	350
1	1749	351
1	1823	352
1	1890	353
1	1962	354
1	2058	355
1	2171	356
1	2292	357
1	2398	358
1	2473	359
1	2500	360
1	2482	361
1	2408	362
1	2304	363
1	2183	364
1	2069	365
1	1962	366
1	1869	367
1	1773	368
1	1700	369
1	1656	370
1	1631	371
1	1620	372
1	1611	373
1	1611	374
1	1643	375
1	1695	376
1	1751	377
1	1802	378
1	1843	379
1	1854	380
1	1834	381
1	1782	382
1	1687	383
1	1584	384
1	1494	385
1	1420	386
1	1355	387
1	1319	388
1	1305	389
1	1317	390
1	1342	391
1	1384	392
1	1446	393
1	1512	394
1	1611	395
1	1736	396
1	1872	397
1	1981	398
1	2063	399
1	2105	400
1	2093	401
1	2034	402
1	1937	403
1	1838	404
1	1742	405
1	1672	406
1	1611	407
1	1569	408
1	1551	409
1	1553	410
1	1567	411
1	1603	412
1	1634	413
1	1679	414
1	1743	415
1	1834	416
1	1926	417
1	2005	418
1	2057	419
1	2075	420
1	2052	421
1	1986	422
1	1891	423
1	1778	424
1	1688	425
1	1611	426
1	1561	427
1	1503	428
1	1491	429
1	1503	430
1	1528	431
1	1580	432
1	1635	433
1	1703	434
1	1791	435
1	1891	436
1	1979	437
1	2053	438
1	2102	439
1	2113	440
1	2081	441
1	2026	442
1	1942	443
1	1849	444
1	1769	445
1	1705	446
1	1656	447
1	1625	448
1	1613	449
1	1623	450
1	1642	451
1	1660	452
1	1684	453
1	1718	454
1	1779	455
1	1872	456
1	1978	457
1	2057	458
1	2106	459
1	2115	460
1	2078	461
1	2009	462
1	1909	463
1	1806	464
1	1715	465
1	1655	466
1	1607	467
1	1575	468
1	1560	469
1	1572	470
1	1598	471
1	1639	472
1	1677	473
1	1718	474
1	1788	475
1	1878	476
1	1971	477
1	2048	478
1	2102	479
1	2120	480
1	2096	481
1	2025	482
1	1919	483
1	1799	484
1	1700	485
1	1625	486
1	1580	487
1	1550	488
1	1537	489
1	1547	490
1	1574	491
1	1607	492
1	1654	493
1	1710	494
1	1791	495
1	1895	496
1	1998	497
1	2083	498
1	2149	499
1	2176	500
1	2160	501
1	2105	502
1	2006	503
1	1901	504
1	1814	505
1	1737	506
1	1679	507
1	1638	508
1	1620	509
1	1624	510
1	1645	511
1	1674	512
1	1710	513
1	1751	514
1	1824	515
1	1916	516
1	2017	517
1	2104	518
1	2163	519
1	2191	520
1	2174	521
1	2114	522
1	2013	523
1	1911	524
1	1818	525
1	1738	526
1	1674	527
1	1632	528
1	1607	529
1	1608	530
1	1629	531
1	1660	532
1	1697	533
1	1752	534
1	1845	535
1	1949	536
1	2060	537
1	2152	538
1	2212	539
1	2242	540
1	2218	541
1	2144	542
1	2037	543
1	1922	544
1	1825	545
1	1744	546
1	1698	547
1	1664	548
1	1656	549
1	1665	550
1	1693	551
1	1728	552
1	1766	553
1	1818	554
1	1898	555
1	2001	556
1	2105	557
1	2196	558
1	2268	559
1	2296	560
1	2280	561
1	2222	562
1	2111	563
1	1991	564
1	1890	565
1	1803	566
1	1738	567
1	1697	568
1	1680	569
1	1686	570
1	1706	571
1	1728	572
1	1752	573
1	1789	574
1	1860	575
1	1960	576
1	2071	577
1	2166	578
1	2237	579
1	2265	580
1	2250	581
1	2184	582
1	2087	583
1	1981	584
1	1891	585
1	1817	586
1	1754	587
1	1717	588
1	1703	589
1	1715	590
1	1746	591
1	1788	592
1	1817	593
1	1848	594
1	1910	595
1	1999	596
1	2091	597
1	2170	598
1	2229	599
1	2239	600
1	2201	601
1	2117	602
1	2000	603
1	1865	604
1	1742	605
1	1644	606
1	1580	607
1	1529	608
1	1507	609
1	1523	610
1	1555	611
1	1594	612
1	1643	613
1	1700	614
1	1780	615
1	1880	616
1	1978	617
1	2065	618
1	2119	619
1	2131	620
1	2102	621
1	2026	622
1	1906	623
1	1788	624
1	1686	625
1	1607	626
1	1542	627
1	1497	628
1	1475	629
1	1481	630
1	1499	631
1	1526	632
1	1553	633
1	1587	634
1	1650	635
1	1737	636
1	1832	637
1	1917	638
1	1976	639
1	2038	660
1	2014	661
1	1948	662
1	1847	663
1	1739	664
1	1651	665
1	1572	666
1	1517	667
1	1463	668
1	1430	669
1	1426	670
1	1440	671
1	1470	672
1	1505	673
1	1556	674
1	1637	675
1	1738	676
1	1843	677
1	1931	678
1	1989	679
1	2012	680
1	1993	681
1	1939	682
1	1846	683
1	1742	684
1	1660	685
1	1589	686
1	1532	687
1	1490	688
1	1471	689
1	1472	690
1	1490	691
1	1520	692
1	1559	693
1	1607	694
1	1679	695
1	1769	696
1	1880	697
1	1962	698
1	2014	699
1	2006	640
1	1999	641
1	1940	642
1	1852	643
1	1746	644
1	1652	645
1	1571	646
1	1504	647
1	1455	648
1	1427	649
1	1432	650
1	1450	651
1	1487	652
1	1529	653
1	1582	654
1	1664	655
1	1762	656
1	1869	657
1	1959	658
1	2017	659
1	2034	700
1	2013	701
1	1952	702
1	1852	703
1	1733	704
1	1634	705
1	1557	706
1	1492	707
1	1442	708
1	1420	709
1	1422	710
1	1446	711
1	1490	712
1	1538	713
1	1595	714
1	1676	715
1	1778	716
1	1890	717
1	1976	718
1	2039	719
1	2063	720
1	2048	721
1	1983	722
1	1882	723
1	1766	724
1	1674	725
1	1594	726
1	1547	727
1	1487	728
1	1473	729
1	1476	730
1	1490	731
1	1529	732
1	1562	733
1	1607	734
1	1686	735
1	1788	736
1	1890	737
1	1973	738
1	2027	739
1	2071	760
1	2058	761
1	2003	762
1	1908	763
1	1801	764
1	1708	765
1	1621	766
1	1546	767
1	1490	768
1	1454	769
1	1449	770
1	1459	771
1	1485	772
1	1517	773
1	1564	774
1	1641	775
1	1742	776
1	1851	777
1	1944	778
1	2008	779
1	2034	780
1	2016	781
1	1949	782
1	1843	783
1	1717	784
1	1611	785
1	1529	786
1	1478	787
1	1445	788
1	1438	789
1	1460	790
1	1498	791
1	1542	792
1	1585	793
1	1638	794
1	1712	795
1	1814	796
1	1913	797
1	2000	798
1	2061	799
1	2052	740
1	2029	741
1	1968	742
1	1869	743
1	1759	744
1	1669	745
1	1591	746
1	1530	747
1	1485	748
1	1461	749
1	1465	750
1	1489	751
1	1515	752
1	1554	753
1	1604	754
1	1682	755
1	1782	756
1	1899	757
1	1986	758
1	2047	759
1	2081	800
1	2060	801
1	2001	802
1	1899	803
1	1782	804
1	1678	805
1	1586	806
1	1518	807
1	1472	808
1	1452	809
1	1459	810
1	1481	811
1	1511	812
1	1547	813
1	1594	814
1	1670	815
1	1764	816
1	1872	817
1	1963	818
1	2030	819
1	2067	820
1	2061	821
1	2007	822
1	1906	823
1	1802	824
1	1701	825
1	1616	826
1	1549	827
1	1503	828
1	1479	829
1	1477	830
1	1487	831
1	1503	832
1	1529	833
1	1576	834
1	1646	835
1	1739	836
1	1843	837
1	1926	838
1	1992	839
1	2026	840
1	2026	841
1	1979	842
1	1899	843
1	1803	844
1	1722	845
1	1656	846
1	1602	847
1	1558	848
1	1530	849
1	1529	850
1	1533	851
1	1551	852
1	1576	853
1	1612	854
1	1679	855
1	1767	856
1	1861	857
1	1944	858
1	2005	859
1	2030	860
1	2011	861
1	1948	862
1	1845	863
1	1740	864
1	1655	865
1	1580	866
1	1521	867
1	1485	868
1	1476	869
1	1489	870
1	1513	871
1	1543	872
1	1579	873
1	1624	874
1	1694	875
1	1778	876
1	1877	877
1	1944	878
1	1985	879
1	1989	880
1	1956	881
1	1883	882
1	1774	883
1	1665	884
1	1574	885
1	1503	886
1	1449	887
1	1410	888
1	1400	889
1	1420	890
1	1455	891
1	1508	892
1	1560	893
1	1616	894
1	1695	895
1	1787	896
1	1885	897
1	1965	898
1	2021	899
1	2039	900
1	2012	901
1	1938	902
1	1836	903
1	1724	904
1	1631	905
1	1547	906
1	1492	907
1	1451	908
1	1440	909
1	1450	910
1	1469	911
1	1501	912
1	1535	913
1	1580	914
1	1647	915
1	1737	916
1	1826	917
1	1904	918
1	1962	919
1	1987	920
1	1968	921
1	1912	922
1	1814	923
1	1712	924
1	1623	925
1	1556	926
1	1497	927
1	1450	928
1	1425	929
1	1427	930
1	1446	931
1	1476	932
1	1512	933
1	1556	934
1	1626	935
1	1716	936
1	1822	937
1	1908	938
1	1965	939
1	1983	940
1	1969	941
1	1908	942
1	1809	943
1	1695	944
1	1605	945
1	1534	946
1	1479	947
1	1446	948
1	1435	949
1	1448	950
1	1477	951
1	1521	952
1	1565	953
1	1613	954
1	1686	955
1	1770	956
1	1867	957
1	1944	958
1	1998	959
1	2016	960
1	1999	961
1	1935	962
1	1847	963
1	1751	964
1	1677	965
1	1626	966
1	1607	967
1	1596	968
1	1611	969
1	1652	970
1	1711	971
1	1775	972
1	1845	973
1	1919	974
1	2013	975
1	2123	976
1	2228	977
1	2317	978
1	2378	979
1	2399	980
1	2379	981
1	2319	982
1	2210	983
1	2083	984
1	1967	985
1	1861	986
1	1764	987
1	1681	988
1	1610	989
1	1563	990
1	1530	991
1	1504	992
1	1488	993
1	1479	994
1	1508	995
1	1567	996
1	1647	997
1	1715	998
1	1765	999
1	1790	1000
1	1777	1001
1	1730	1002
1	1642	1003
1	1545	1004
1	1463	1005
1	1394	1006
1	1332	1007
1	1301	1008
1	1293	1009
1	1311	1010
1	1345	1011
1	1398	1012
1	1451	1013
1	1517	1014
1	1605	1015
1	1713	1016
1	1836	1017
1	1930	1018
1	1994	1019
1	2017	1020
1	1998	1021
1	1924	1022
1	1817	1023
1	1697	1024
1	1593	1025
1	1503	1026
1	1451	1027
1	1413	1028
1	1398	1029
1	1423	1030
1	1459	1031
1	1506	1032
1	1567	1033
1	1634	1034
1	1719	1035
1	1832	1036
1	1937	1037
1	2025	1038
1	2084	1039
1	2105	1040
1	2079	1041
1	2011	1042
1	1896	1043
1	1765	1044
1	1660	1045
1	1563	1046
1	1490	1047
1	1433	1048
1	1399	1049
1	1399	1050
1	1424	1051
1	1458	1052
1	1503	1053
1	1564	1054
1	1660	1055
1	1769	1056
1	1895	1057
1	1983	1058
1	2048	1059
1	2070	1060
1	2048	1061
1	1976	1062
1	1869	1063
1	1744	1064
1	1647	1065
1	1570	1066
1	1508	1067
1	1475	1068
1	1461	1069
1	1473	1070
1	1500	1071
1	1540	1072
1	1583	1073
1	1638	1074
1	1721	1075
1	1827	1076
1	1934	1077
1	2024	1078
1	2081	1079
1	2105	1080
1	2081	1081
1	2009	1082
1	1908	1083
1	1791	1084
1	1692	1085
1	1607	1086
1	1542	1087
1	1490	1088
1	1463	1089
1	1465	1090
1	1485	1091
1	1520	1092
1	1562	1093
1	1608	1094
1	1687	1095
1	1789	1096
1	1895	1097
1	1983	1098
1	2051	1099
1	2074	1100
1	2056	1101
1	2004	1102
1	1908	1103
1	1800	1104
1	1709	1105
1	1626	1106
1	1566	1107
1	1527	1108
1	1511	1109
1	1520	1110
1	1541	1111
1	1571	1112
1	1607	1113
1	1660	1114
1	1738	1115
1	1841	1116
1	1948	1117
1	2039	1118
1	2095	1119
1	2110	1120
1	2086	1121
1	2028	1122
1	1929	1123
1	1827	1124
1	1731	1125
1	1658	1126
1	1605	1127
1	1566	1128
1	1548	1129
1	1555	1130
1	1580	1131
1	1610	1132
1	1639	1133
1	1679	1134
1	1751	1135
1	1847	1136
1	1937	1137
1	2016	1138
1	2079	1139
1	2135	1160
1	2118	1161
1	2073	1162
1	1978	1163
1	1872	1164
1	1776	1165
1	1698	1166
1	1641	1167
1	1605	1168
1	1589	1169
1	1598	1170
1	1631	1171
1	1664	1172
1	1706	1173
1	1754	1174
1	1827	1175
1	1913	1176
1	2014	1177
1	2103	1178
1	2163	1179
1	2107	1140
1	2105	1141
1	2062	1142
1	1988	1143
1	1899	1144
1	1817	1145
1	1738	1146
1	1686	1147
1	1641	1148
1	1611	1149
1	1606	1150
1	1618	1151
1	1647	1152
1	1679	1153
1	1720	1154
1	1791	1155
1	1885	1156
1	1975	1157
1	2058	1158
1	2114	1159
1	2190	1180
1	2175	1181
1	2115	1182
1	2019	1183
1	1912	1184
1	1817	1185
1	1738	1186
1	1683	1187
1	1643	1188
1	1623	1189
1	1629	1190
1	1651	1191
1	1695	1192
1	1744	1193
1	1801	1194
1	1878	1195
1	1974	1196
1	2071	1197
1	2152	1198
1	2201	1199
1	2211	1200
1	2183	1201
1	2107	1202
1	2000	1203
1	1887	1204
1	1782	1205
1	1690	1206
1	1629	1207
1	1574	1208
1	1539	1209
1	1530	1210
1	1546	1211
1	1581	1212
1	1631	1213
1	1686	1214
1	1768	1215
1	1872	1216
1	1971	1217
1	2052	1218
1	2106	1219
1	2119	1220
1	2085	1221
1	2023	1222
1	1914	1223
1	1803	1224
1	1708	1225
1	1633	1226
1	1566	1227
1	1521	1228
1	1492	1229
1	1485	1230
1	1492	1231
1	1512	1232
1	1531	1233
1	1561	1234
1	1612	1235
1	1693	1236
1	1790	1237
1	1869	1238
1	1929	1239
1	1956	1240
1	1948	1241
1	1895	1242
1	1791	1243
1	1687	1244
1	1596	1245
1	1523	1246
1	1463	1247
1	1428	1248
1	1409	1249
1	1412	1250
1	1436	1251
1	1476	1252
1	1517	1253
1	1559	1254
1	1635	1255
1	1731	1256
1	1836	1257
1	1919	1258
1	1976	1259
1	1995	1260
1	1969	1261
1	1895	1262
1	1781	1263
1	1664	1264
1	1567	1265
1	1490	1266
1	1437	1267
1	1395	1268
1	1367	1269
1	1364	1270
1	1382	1271
1	1412	1272
1	1439	1273
1	1475	1274
1	1538	1275
1	1624	1276
1	1718	1277
1	1815	1278
1	1877	1279
1	1908	1280
1	1895	1281
1	1843	1282
1	1738	1283
1	1625	1284
1	1529	1285
1	1450	1286
1	1395	1287
1	1354	1288
1	1343	1289
1	1348	1290
1	1373	1291
1	1410	1292
1	1445	1293
1	1491	1294
1	1565	1295
1	1665	1296
1	1769	1297
1	1859	1298
1	1916	1299
1	1934	1300
1	1909	1301
1	1844	1302
1	1738	1303
1	1632	1304
1	1535	1305
1	1451	1306
1	1380	1307
1	1327	1308
1	1301	1309
1	1301	1310
1	1323	1311
1	1365	1312
1	1410	1313
1	1465	1314
1	1549	1315
1	1646	1316
1	1743	1317
1	1828	1318
1	1881	1319
1	1904	1320
1	1893	1321
1	1839	1322
1	1744	1323
1	1646	1324
1	1556	1325
1	1484	1326
1	1435	1327
1	1380	1328
1	1355	1329
1	1370	1330
1	1398	1331
1	1448	1332
1	1490	1333
1	1545	1334
1	1618	1335
1	1710	1336
1	1807	1337
1	1890	1338
1	1948	1339
1	1974	1340
1	1956	1341
1	1893	1342
1	1787	1343
1	1668	1344
1	1566	1345
1	1480	1346
1	1418	1347
1	1368	1348
1	1346	1349
1	1350	1350
1	1382	1351
1	1427	1352
1	1476	1353
1	1541	1354
1	1630	1355
1	1738	1356
1	1852	1357
1	1935	1358
1	1987	1359
1	2002	1360
1	1971	1361
1	1899	1362
1	1783	1363
1	1657	1364
1	1546	1365
1	1451	1366
1	1374	1367
1	1325	1368
1	1302	1369
1	1306	1370
1	1329	1371
1	1371	1372
1	1422	1373
1	1477	1374
1	1562	1375
1	1665	1376
1	1772	1377
1	1864	1378
1	1922	1379
1	1940	1380
1	1916	1381
1	1843	1382
1	1735	1383
1	1621	1384
1	1528	1385
1	1451	1386
1	1404	1387
1	1369	1388
1	1348	1389
1	1359	1390
1	1384	1391
1	1425	1392
1	1467	1393
1	1518	1394
1	1597	1395
1	1693	1396
1	1787	1397
1	1872	1398
1	1931	1399
1	1952	1400
1	1929	1401
1	1872	1402
1	1765	1403
1	1649	1404
1	1544	1405
1	1463	1406
1	1409	1407
1	1372	1408
1	1354	1409
1	1363	1410
1	1392	1411
1	1425	1412
1	1463	1413
1	1509	1414
1	1580	1415
1	1661	1416
1	1762	1417
1	1847	1418
1	1904	1419
1	1922	1420
1	1897	1421
1	1834	1422
1	1712	1423
1	1596	1424
1	1503	1425
1	1431	1426
1	1381	1427
1	1350	1428
1	1346	1429
1	1372	1430
1	1412	1431
1	1450	1432
1	1487	1433
1	1529	1434
1	1589	1435
1	1683	1436
1	1778	1437
1	1868	1438
1	1929	1439
1	1958	1440
1	1947	1441
1	1875	1442
1	1769	1443
1	1650	1444
1	1550	1445
1	1469	1446
1	1415	1447
1	1372	1448
1	1358	1449
1	1372	1450
1	1410	1451
1	1458	1452
1	1511	1453
1	1574	1454
1	1655	1455
1	1752	1456
1	1856	1457
1	1943	1458
1	2003	1459
1	2026	1460
1	2012	1461
1	1958	1462
1	1849	1463
1	1724	1464
1	1619	1465
1	1529	1466
1	1461	1467
1	1417	1468
1	1395	1469
1	1397	1470
1	1417	1471
1	1440	1472
1	1474	1473
1	1516	1474
1	1589	1475
1	1685	1476
1	1791	1477
1	1886	1478
1	1951	1479
1	1976	1480
1	1959	1481
1	1900	1482
1	1796	1483
1	1683	1484
1	1577	1485
1	1488	1486
1	1420	1487
1	1369	1488
1	1345	1489
1	1343	1490
1	1360	1491
1	1402	1492
1	1442	1493
1	1490	1494
1	1565	1495
1	1660	1496
1	1759	1497
1	1844	1498
1	1899	1499
1	1922	1500
1	1914	1501
1	1864	1502
1	1769	1503
1	1664	1504
1	1569	1505
1	1490	1506
1	1439	1507
1	1402	1508
1	1395	1509
1	1407	1510
1	1430	1511
1	1462	1512
1	1494	1513
1	1531	1514
1	1595	1515
1	1679	1516
1	1764	1517
1	1837	1518
1	1875	1519
1	1880	1520
1	1846	1521
1	1786	1522
1	1686	1523
1	1584	1524
1	1492	1525
1	1427	1526
1	1372	1527
1	1344	1528
1	1335	1529
1	1350	1530
1	1377	1531
1	1413	1532
1	1446	1533
1	1489	1534
1	1556	1535
1	1654	1536
1	1756	1537
1	1847	1538
1	1899	1539
1	1944	1560
1	1922	1561
1	1859	1562
1	1756	1563
1	1644	1564
1	1546	1565
1	1458	1566
1	1398	1567
1	1341	1568
1	1317	1569
1	1311	1570
1	1327	1571
1	1358	1572
1	1402	1573
1	1459	1574
1	1548	1575
1	1661	1576
1	1782	1577
1	1898	1578
1	1989	1579
1	1918	1560
1	1901	1561
1	1842	1562
1	1750	1563
1	1652	1564
1	1566	1565
1	1492	1566
1	1426	1567
1	1384	1568
1	1368	1569
1	1373	1570
1	1404	1571
1	1449	1572
1	1487	1573
1	1533	1574
1	1600	1575
1	1686	1576
1	1781	1577
1	1865	1578
1	1922	1579
1	2043	1580
1	2052	1581
1	2026	1582
1	1953	1583
1	1869	1584
1	1795	1585
1	1743	1586
1	1710	1587
1	1694	1588
1	1701	1589
1	1729	1590
1	1773	1591
1	1821	1592
1	1868	1593
1	1917	1594
1	1991	1595
1	2088	1596
1	2201	1597
1	2288	1598
1	2338	1599
1	2338	1600
1	2279	1601
1	2170	1602
1	2015	1603
1	1851	1604
1	1690	1605
1	1550	1606
1	1424	1607
1	1319	1608
1	1246	1609
1	1209	1610
1	1197	1611
1	1212	1612
1	1232	1613
1	1269	1614
1	1346	1615
1	1449	1616
1	1555	1617
1	1656	1618
1	1736	1619
1	1782	1620
1	1781	1621
1	1736	1622
1	1647	1623
1	1548	1624
1	1467	1625
1	1400	1626
1	1351	1627
1	1318	1628
1	1299	1629
1	1312	1630
1	1333	1631
1	1378	1632
1	1430	1633
1	1489	1634
1	1569	1635
1	1674	1636
1	1778	1637
1	1871	1638
1	1932	1639
1	1957	1640
1	1940	1641
1	1879	1642
1	1776	1643
1	1652	1644
1	1557	1645
1	1474	1646
1	1412	1647
1	1364	1648
1	1343	1649
1	1344	1650
1	1363	1651
1	1394	1652
1	1430	1653
1	1481	1654
1	1557	1655
1	1657	1656
1	1764	1657
1	1854	1658
1	1917	1659
1	1949	1660
1	1939	1661
1	1890	1662
1	1796	1663
1	1698	1664
1	1610	1665
1	1539	1666
1	1481	1667
1	1447	1668
1	1429	1669
1	1438	1670
1	1466	1671
1	1508	1672
1	1544	1673
1	1581	1674
1	1639	1675
1	1724	1676
1	1818	1677
1	1904	1678
1	1962	1679
1	1990	1680
1	1973	1681
1	1908	1682
1	1813	1683
1	1697	1684
1	1605	1685
1	1529	1686
1	1468	1687
1	1415	1688
1	1373	1689
1	1367	1690
1	1382	1691
1	1424	1692
1	1476	1693
1	1538	1694
1	1632	1695
1	1744	1696
1	1859	1697
1	1949	1698
1	2005	1699
1	2017	1700
1	1985	1701
1	1921	1702
1	1816	1703
1	1699	1704
1	1602	1705
1	1521	1706
1	1458	1707
1	1408	1708
1	1372	1709
1	1368	1710
1	1381	1711
1	1405	1712
1	1442	1713
1	1492	1714
1	1570	1715
1	1672	1716
1	1790	1717
1	1891	1718
1	1961	1719
1	1998	1720
1	1987	1721
1	1936	1722
1	1842	1723
1	1736	1724
1	1638	1725
1	1567	1726
1	1513	1727
1	1475	1728
1	1454	1729
1	1461	1730
1	1486	1731
1	1518	1732
1	1555	1733
1	1603	1734
1	1674	1735
1	1781	1736
1	1888	1737
1	1974	1738
1	2036	1739
1	2055	1740
1	2032	1741
1	1963	1742
1	1868	1743
1	1751	1744
1	1649	1745
1	1562	1746
1	1507	1747
1	1467	1748
1	1450	1749
1	1453	1750
1	1476	1751
1	1508	1752
1	1550	1753
1	1602	1754
1	1683	1755
1	1788	1756
1	1892	1757
1	1980	1758
1	2050	1759
1	2089	1780
1	2078	1781
1	2019	1782
1	1923	1783
1	1817	1784
1	1715	1785
1	1638	1786
1	1581	1787
1	1544	1788
1	1530	1789
1	1541	1790
1	1563	1791
1	1605	1792
1	1646	1793
1	1693	1794
1	1767	1795
1	1869	1796
1	1972	1797
1	2061	1798
1	2124	1799
1	2150	1800
1	2124	1801
1	2050	1802
1	1942	1803
1	1826	1804
1	1719	1805
1	1633	1806
1	1572	1807
1	1521	1808
1	1494	1809
1	1492	1810
1	1511	1811
1	1547	1812
1	1587	1813
1	1635	1814
1	1712	1815
1	1803	1816
1	1901	1817
1	1986	1818
1	2050	1819
1	2076	1760
1	2063	1761
1	2013	1762
1	1916	1763
1	1801	1764
1	1703	1765
1	1616	1766
1	1543	1767
1	1484	1768
1	1450	1769
1	1450	1770
1	1471	1771
1	1503	1772
1	1540	1773
1	1590	1774
1	1669	1775
1	1772	1776
1	1893	1777
1	1985	1778
1	2052	1779
1	2072	1820
1	2052	1821
1	2001	1822
1	1890	1823
1	1765	1824
1	1668	1825
1	1580	1826
1	1503	1827
1	1463	1828
1	1440	1829
1	1443	1830
1	1465	1831
1	1503	1832
1	1542	1833
1	1589	1834
1	1660	1835
1	1754	1836
1	1859	1837
1	1940	1838
1	1994	1839
1	2002	1840
1	1980	1841
1	1911	1842
1	1799	1843
1	1686	1844
1	1589	1845
1	1504	1846
1	1432	1847
1	1384	1848
1	1364	1849
1	1372	1850
1	1396	1851
1	1429	1852
1	1462	1853
1	1503	1854
1	1569	1855
1	1659	1856
1	1752	1857
1	1836	1858
1	1885	1859
1	1899	1860
1	1875	1861
1	1811	1862
1	1710	1863
1	1600	1864
1	1503	1865
1	1413	1866
1	1340	1867
1	1287	1868
1	1259	1869
1	1258	1870
1	1275	1871
1	1303	1872
1	1342	1873
1	1394	1874
1	1468	1875
1	1561	1876
1	1660	1877
1	1747	1878
1	1817	1879
1	1849	1880
1	1841	1881
1	1791	1882
1	1691	1883
1	1581	1884
1	1488	1885
1	1414	1886
1	1355	1887
1	1312	1888
1	1289	1889
1	1292	1890
1	1307	1891
1	1332	1892
1	1367	1893
1	1410	1894
1	1479	1895
1	1569	1896
1	1670	1897
1	1752	1898
1	1811	1899
1	1832	1900
1	1818	1901
1	1764	1902
1	1674	1903
1	1574	1904
1	1487	1905
1	1422	1906
1	1368	1907
1	1325	1908
1	1301	1909
1	1295	1910
1	1310	1911
1	1332	1912
1	1359	1913
1	1402	1914
1	1472	1915
1	1567	1916
1	1671	1917
1	1753	1918
1	1814	1919
1	1831	1920
1	1803	1921
1	1737	1922
1	1636	1923
1	1529	1924
1	1440	1925
1	1366	1926
1	1319	1927
1	1279	1928
1	1261	1929
1	1273	1930
1	1302	1931
1	1335	1932
1	1377	1933
1	1436	1934
1	1508	1935
1	1607	1936
1	1703	1937
1	1784	1938
1	1835	1939
1	1843	1940
1	1814	1941
1	1743	1942
1	1647	1943
1	1536	1944
1	1443	1945
1	1364	1946
1	1305	1947
1	1260	1948
1	1238	1949
1	1241	1950
1	1266	1951
1	1299	1952
1	1340	1953
1	1396	1954
1	1477	1955
1	1579	1956
1	1687	1957
1	1770	1958
1	1839	1959
1	1873	1980
1	1856	1981
1	1789	1982
1	1686	1983
1	1579	1984
1	1481	1985
1	1405	1986
1	1348	1987
1	1307	1988
1	1285	1989
1	1282	1990
1	1293	1991
1	1320	1992
1	1355	1993
1	1404	1994
1	1477	1995
1	1578	1996
1	1681	1997
1	1767	1998
1	1831	1999
1	1853	2000
1	1832	2001
1	1767	2002
1	1660	2003
1	1542	2004
1	1441	2005
1	1354	2006
1	1286	2007
1	1237	2008
1	1215	2009
1	1228	2010
1	1258	2011
1	1288	2012
1	1325	2013
1	1371	2014
1	1445	2015
1	1534	2016
1	1638	2017
1	1728	2018
1	1792	2019
1	1860	1960
1	1842	1961
1	1777	1962
1	1677	1963
1	1571	1964
1	1479	1965
1	1406	1966
1	1340	1967
1	1302	1968
1	1281	1969
1	1285	1970
1	1303	1971
1	1341	1972
1	1377	1973
1	1427	1974
1	1503	1975
1	1596	1976
1	1697	1977
1	1783	1978
1	1848	1979
1	1828	2040
1	1815	2041
1	1757	2042
1	1655	2043
1	1544	2044
1	1451	2045
1	1364	2046
1	1305	2047
1	1263	2048
1	1241	2049
1	1243	2050
1	1267	2051
1	1301	2052
1	1338	2053
1	1384	2054
1	1455	2055
1	1557	2056
1	1661	2057
1	1751	2058
1	1817	2059
1	1846	2040
1	1832	2041
1	1756	2042
1	1665	2043
1	1559	2044
1	1472	2045
1	1398	2046
1	1344	2047
1	1302	2048
1	1280	2049
1	1285	2050
1	1307	2051
1	1340	2052
1	1374	2053
1	1427	2054
1	1503	2055
1	1589	2056
1	1673	2057
1	1744	2058
1	1793	2059
1	1814	2060
1	1787	2061
1	1734	2062
1	1635	2063
1	1529	2064
1	1436	2065
1	1354	2066
1	1299	2067
1	1263	2068
1	1243	2069
1	1250	2070
1	1274	2071
1	1310	2072
1	1353	2073
1	1410	2074
1	1488	2075
1	1582	2076
1	1687	2077
1	1773	2078
1	1841	2079
1	1868	2080
1	1854	2081
1	1791	2082
1	1700	2083
1	1595	2084
1	1502	2085
1	1422	2086
1	1348	2087
1	1297	2088
1	1267	2089
1	1265	2090
1	1283	2091
1	1327	2092
1	1373	2093
1	1430	2094
1	1510	2095
1	1610	2096
1	1713	2097
1	1809	2098
1	1877	2099
1	1909	2100
1	1896	2101
1	1841	2102
1	1739	2103
1	1634	2104
1	1535	2105
1	1450	2106
1	1384	2107
1	1333	2108
1	1305	2109
1	1296	2110
1	1314	2111
1	1344	2112
1	1384	2113
1	1437	2114
1	1511	2115
1	1605	2116
1	1700	2117
1	1789	2118
1	1848	2119
1	1872	2120
1	1856	2121
1	1801	2122
1	1704	2123
1	1593	2124
1	1501	2125
1	1422	2126
1	1340	2127
1	1293	2128
1	1265	2129
1	1265	2130
1	1284	2131
1	1322	2132
1	1363	2133
1	1417	2134
1	1488	2135
1	1571	2136
1	1660	2137
1	1737	2138
1	1791	2139
1	1816	2140
1	1813	2141
1	1751	2142
1	1649	2143
1	1535	2144
1	1436	2145
1	1348	2146
1	1285	2147
1	1256	2148
1	1244	2149
1	1259	2150
1	1283	2151
1	1321	2152
1	1356	2153
1	1404	2154
1	1476	2155
1	1570	2156
1	1668	2157
1	1755	2158
1	1818	2159
1	1843	2160
1	1823	2161
1	1747	2162
1	1646	2163
1	1530	2164
1	1436	2165
1	1358	2166
1	1307	2167
1	1267	2168
1	1250	2169
1	1260	2170
1	1286	2171
1	1319	2172
1	1359	2173
1	1413	2174
1	1485	2175
1	1579	2176
1	1667	2177
1	1749	2178
1	1811	2179
1	1834	2180
1	1815	2181
1	1757	2182
1	1660	2183
1	1547	2184
1	1446	2185
1	1351	2186
1	1281	2187
1	1232	2188
1	1204	2189
1	1197	2190
1	1211	2191
1	1232	2192
1	1269	2193
1	1319	2194
1	1404	2195
1	1512	2196
1	1636	2197
1	1742	2198
1	1826	2199
1	1867	2200
1	1864	2201
1	1814	2202
1	1710	2203
1	1594	2204
1	1490	2205
1	1404	2206
1	1330	2207
1	1278	2208
1	1255	2209
1	1267	2210
1	1293	2211
1	1330	2212
1	1367	2213
1	1413	2214
1	1481	2215
1	1569	2216
1	1662	2217
1	1748	2218
1	1809	2219
1	1832	2220
1	1803	2221
1	1735	2222
1	1635	2223
1	1533	2224
1	1453	2225
1	1393	2226
1	1359	2227
1	1348	2228
1	1359	2229
1	1399	2230
1	1463	2231
1	1526	2232
1	1598	2233
1	1683	2234
1	1785	2235
1	1898	2236
1	2008	2237
1	2101	2238
1	2159	2239
1	2186	2240
1	2178	2241
1	2122	2242
1	2026	2243
1	1919	2244
1	1827	2245
1	1747	2246
1	1679	2247
1	1616	2248
1	1566	2249
1	1530	2250
1	1508	2251
1	1489	2252
1	1476	2253
1	1467	2254
1	1491	2255
1	1537	2256
1	1595	2257
1	1634	2258
1	1655	2259
1	1647	2260
1	1607	2261
1	1530	2262
1	1424	2263
1	1312	2264
1	1228	2265
1	1165	2266
1	1117	2267
1	1094	2268
1	1095	2269
1	1121	2270
1	1165	2271
1	1220	2272
1	1277	2273
1	1341	2274
1	1436	2275
1	1546	2276
1	1661	2277
1	1761	2278
1	1836	2279
1	1869	2280
1	1856	2281
1	1791	2282
1	1700	2283
1	1593	2284
1	1493	2285
1	1409	2286
1	1345	2287
1	1293	2288
1	1268	2289
1	1273	2290
1	1299	2291
1	1340	2292
1	1384	2293
1	1446	2294
1	1528	2295
1	1631	2296
1	1728	2297
1	1822	2298
1	1890	2299
1	1922	2300
1	1913	2301
1	1869	2302
1	1773	2303
1	1665	2304
1	1567	2305
1	1481	2306
1	1410	2307
1	1348	2308
1	1315	2309
1	1304	2310
1	1318	2311
1	1333	2312
1	1361	2313
1	1400	2314
1	1469	2315
1	1564	2316
1	1680	2317
1	1780	2318
1	1859	2319
1	1895	2320
1	1890	2321
1	1841	2322
1	1738	2323
1	1628	2324
1	1529	2325
1	1448	2326
1	1384	2327
1	1341	2328
1	1325	2329
1	1337	2330
1	1363	2331
1	1398	2332
1	1436	2333
1	1484	2334
1	1557	2335
1	1661	2336
1	1765	2337
1	1854	2338
1	1904	2339
1	1916	2340
1	1885	2341
1	1801	2342
1	1713	2343
1	1611	2344
1	1528	2345
1	1456	2346
1	1411	2347
1	1368	2348
1	1346	2349
1	1350	2350
1	1379	2351
1	1420	2352
1	1455	2353
1	1503	2354
1	1573	2355
1	1664	2356
1	1760	2357
1	1834	2358
1	1888	2359
1	1950	2380
1	1931	2381
1	1877	2382
1	1782	2383
1	1677	2384
1	1581	2385
1	1503	2386
1	1437	2387
1	1398	2388
1	1377	2389
1	1382	2390
1	1412	2391
1	1454	2392
1	1495	2393
1	1542	2394
1	1612	2395
1	1707	2396
1	1813	2397
1	1908	2398
1	1985	2399
1	1909	2360
1	1895	2361
1	1842	2362
1	1740	2363
1	1634	2364
1	1549	2365
1	1478	2366
1	1432	2367
1	1398	2368
1	1383	2369
1	1397	2370
1	1418	2371
1	1450	2372
1	1490	2373
1	1536	2374
1	1607	2375
1	1699	2376
1	1802	2377
1	1881	2378
1	1933	2379
1	2024	2400
1	2013	2401
1	1953	2402
1	1856	2403
1	1746	2404
1	1656	2405
1	1577	2406
1	1521	2407
1	1476	2408
1	1449	2409
1	1448	2410
1	1458	2411
1	1484	2412
1	1513	2413
1	1551	2414
1	1614	2415
1	1703	2416
1	1801	2417
1	1893	2418
1	1955	2419
1	1985	2420
1	1971	2421
1	1927	2422
1	1842	2423
1	1737	2424
1	1654	2425
1	1585	2426
1	1526	2427
1	1478	2428
1	1454	2429
1	1454	2430
1	1476	2431
1	1504	2432
1	1546	2433
1	1593	2434
1	1661	2435
1	1755	2436
1	1862	2437
1	1953	2438
1	2017	2439
1	2046	2440
1	2040	2441
1	1986	2442
1	1895	2443
1	1786	2444
1	1692	2445
1	1616	2446
1	1550	2447
1	1512	2448
1	1488	2449
1	1482	2450
1	1503	2451
1	1542	2452
1	1579	2453
1	1620	2454
1	1686	2455
1	1773	2456
1	1867	2457
1	1944	2458
1	2000	2459
1	2026	2460
1	2014	2461
1	1952	2462
1	1871	2463
1	1775	2464
1	1693	2465
1	1625	2466
1	1577	2467
1	1530	2468
1	1503	2469
1	1496	2470
1	1506	2471
1	1530	2472
1	1565	2473
1	1606	2474
1	1674	2475
1	1763	2476
1	1856	2477
1	1934	2478
1	1987	2479
1	2006	2480
1	1981	2481
1	1922	2482
1	1817	2483
1	1693	2484
1	1590	2485
1	1503	2486
1	1436	2487
1	1381	2488
1	1355	2489
1	1353	2490
1	1372	2491
1	1398	2492
1	1431	2493
1	1477	2494
1	1549	2495
1	1642	2496
1	1751	2497
1	1842	2498
1	1898	2499
1	1922	2500
1	1904	2501
1	1843	2502
1	1749	2503
1	1638	2504
1	1544	2505
1	1463	2506
1	1381	2507
1	1330	2508
1	1298	2509
1	1293	2510
1	1302	2511
1	1322	2512
1	1341	2513
1	1379	2514
1	1453	2515
1	1553	2516
1	1664	2517
1	1762	2518
1	1830	2519
1	1853	2540
1	1826	2541
1	1757	2542
1	1658	2543
1	1543	2544
1	1456	2545
1	1377	2546
1	1322	2547
1	1289	2548
1	1277	2549
1	1288	2550
1	1317	2551
1	1355	2552
1	1397	2553
1	1438	2554
1	1501	2555
1	1581	2556
1	1669	2557
1	1738	2558
1	1787	2559
1	1854	2520
1	1834	2521
1	1764	2522
1	1659	2523
1	1547	2524
1	1451	2525
1	1372	2526
1	1318	2527
1	1277	2528
1	1264	2529
1	1271	2530
1	1309	2531
1	1350	2532
1	1398	2533
1	1449	2534
1	1519	2535
1	1607	2536
1	1699	2537
1	1778	2538
1	1836	2539
1	1803	2560
1	1786	2561
1	1729	2562
1	1636	2563
1	1534	2564
1	1443	2565
1	1361	2566
1	1293	2567
1	1255	2568
1	1235	2569
1	1237	2570
1	1256	2571
1	1293	2572
1	1343	2573
1	1402	2574
1	1484	2575
1	1581	2576
1	1683	2577
1	1765	2578
1	1823	2579
1	1841	2580
1	1809	2581
1	1737	2582
1	1636	2583
1	1528	2584
1	1437	2585
1	1369	2586
1	1319	2587
1	1283	2588
1	1270	2589
1	1278	2590
1	1301	2591
1	1336	2592
1	1374	2593
1	1431	2594
1	1503	2595
1	1605	2596
1	1705	2597
1	1782	2598
1	1843	2599
1	1869	2600
1	1857	2601
1	1811	2602
1	1720	2603
1	1621	2604
1	1535	2605
1	1455	2606
1	1395	2607
1	1337	2608
1	1307	2609
1	1307	2610
1	1320	2611
1	1341	2612
1	1369	2613
1	1414	2614
1	1481	2615
1	1570	2616
1	1670	2617
1	1755	2618
1	1817	2619
1	1873	2640
1	1868	2641
1	1801	2642
1	1719	2643
1	1618	2644
1	1529	2645
1	1450	2646
1	1392	2647
1	1338	2648
1	1308	2649
1	1301	2650
1	1318	2651
1	1346	2652
1	1377	2653
1	1423	2654
1	1494	2655
1	1589	2656
1	1693	2657
1	1773	2658
1	1843	2659
1	1843	2620
1	1827	2621
1	1769	2622
1	1678	2623
1	1570	2624
1	1494	2625
1	1424	2626
1	1372	2627
1	1333	2628
1	1319	2629
1	1319	2630
1	1335	2631
1	1361	2632
1	1392	2633
1	1428	2634
1	1495	2635
1	1589	2636
1	1686	2637
1	1774	2638
1	1842	2639
1	1869	2660
1	1857	2661
1	1814	2662
1	1712	2663
1	1607	2664
1	1514	2665
1	1438	2666
1	1381	2667
1	1344	2668
1	1323	2669
1	1324	2670
1	1346	2671
1	1376	2672
1	1415	2673
1	1465	2674
1	1540	2675
1	1638	2676
1	1746	2677
1	1839	2678
1	1895	2679
1	1918	2680
1	1892	2681
1	1814	2682
1	1698	2683
1	1572	2684
1	1463	2685
1	1369	2686
1	1307	2687
1	1262	2688
1	1238	2689
1	1241	2690
1	1273	2691
1	1330	2692
1	1395	2693
1	1458	2694
1	1549	2695
1	1649	2696
1	1751	2697
1	1836	2698
1	1885	2699
1	1904	2700
1	1880	2701
1	1802	2702
1	1708	2703
1	1600	2704
1	1508	2705
1	1433	2706
1	1373	2707
1	1329	2708
1	1304	2709
1	1305	2710
1	1323	2711
1	1358	2712
1	1405	2713
1	1454	2714
1	1526	2715
1	1611	2716
1	1706	2717
1	1773	2718
1	1830	2719
1	1848	2720
1	1830	2721
1	1773	2722
1	1682	2723
1	1576	2724
1	1494	2725
1	1427	2726
1	1371	2727
1	1332	2728
1	1319	2729
1	1331	2730
1	1358	2731
1	1397	2732
1	1437	2733
1	1481	2734
1	1553	2735
1	1639	2736
1	1736	2737
1	1816	2738
1	1862	2739
1	1870	2740
1	1851	2741
1	1782	2742
1	1682	2743
1	1571	2744
1	1476	2745
1	1398	2746
1	1332	2747
1	1304	2748
1	1293	2749
1	1304	2750
1	1327	2751
1	1362	2752
1	1400	2753
1	1443	2754
1	1510	2755
1	1603	2756
1	1703	2757
1	1790	2758
1	1854	2759
1	1883	2760
1	1869	2761
1	1796	2762
1	1705	2763
1	1596	2764
1	1503	2765
1	1429	2766
1	1377	2767
1	1343	2768
1	1329	2769
1	1337	2770
1	1361	2771
1	1400	2772
1	1436	2773
1	1476	2774
1	1544	2775
1	1633	2776
1	1722	2777
1	1793	2778
1	1848	2779
1	1865	2780
1	1841	2781
1	1780	2782
1	1685	2783
1	1575	2784
1	1486	2785
1	1415	2786
1	1358	2787
1	1325	2788
1	1319	2789
1	1340	2790
1	1372	2791
1	1422	2792
1	1461	2793
1	1505	2794
1	1579	2795
1	1665	2796
1	1764	2797
1	1843	2798
1	1895	2799
1	1913	2800
1	1891	2801
1	1829	2802
1	1718	2803
1	1602	2804
1	1503	2805
1	1425	2806
1	1364	2807
1	1330	2808
1	1318	2809
1	1323	2810
1	1348	2811
1	1384	2812
1	1426	2813
1	1477	2814
1	1557	2815
1	1660	2816
1	1765	2817
1	1857	2818
1	1913	2819
1	1940	2820
1	1930	2821
1	1861	2822
1	1765	2823
1	1652	2824
1	1554	2825
1	1471	2826
1	1417	2827
1	1366	2828
1	1335	2829
1	1328	2830
1	1340	2831
1	1362	2832
1	1400	2833
1	1458	2834
1	1544	2835
1	1654	2836
1	1765	2837
1	1872	2838
1	1945	2839
1	1974	2840
1	1959	2841
1	1899	2842
1	1796	2843
1	1688	2844
1	1607	2845
1	1531	2846
1	1481	2847
1	1450	2848
1	1437	2849
1	1445	2850
1	1467	2851
1	1495	2852
1	1527	2853
1	1562	2854
1	1625	2855
1	1703	2856
1	1791	2857
1	1867	2858
1	1913	2859
1	1926	2860
1	1898	2861
1	1838	2862
1	1733	2863
1	1621	2864
1	1519	2865
1	1436	2866
1	1358	2867
1	1319	2868
1	1301	2869
1	1313	2870
1	1343	2871
1	1391	2872
1	1437	2873
1	1487	2874
1	1556	2875
1	1638	2876
1	1731	2877
1	1817	2878
1	1872	2879
1	1896	2880
1	1877	2881
1	1812	2882
1	1713	2883
1	1608	2884
1	1521	2885
1	1447	2886
1	1395	2887
1	1346	2888
1	1329	2889
1	1335	2890
1	1361	2891
1	1400	2892
1	1438	2893
1	1489	2894
1	1566	2895
1	1661	2896
1	1764	2897
1	1845	2898
1	1899	2899
1	1922	2900
1	1904	2901
1	1854	2902
1	1751	2903
1	1643	2904
1	1552	2905
1	1476	2906
1	1425	2907
1	1391	2908
1	1374	2909
1	1393	2910
1	1420	2911
1	1453	2912
1	1487	2913
1	1530	2914
1	1598	2915
1	1685	2916
1	1768	2917
1	1842	2918
1	1890	2919
1	1904	2920
1	1877	2921
1	1816	2922
1	1709	2923
1	1594	2924
1	1512	2925
1	1437	2926
1	1382	2927
1	1354	2928
1	1351	2929
1	1369	2930
1	1399	2931
1	1433	2932
1	1471	2933
1	1504	2934
1	1574	2935
1	1665	2936
1	1764	2937
1	1854	2938
1	1909	2939
1	1931	2940
1	1905	2941
1	1819	2942
1	1726	2943
1	1608	2944
1	1508	2945
1	1424	2946
1	1355	2947
1	1305	2948
1	1280	2949
1	1281	2950
1	1305	2951
1	1346	2952
1	1408	2953
1	1478	2954
1	1576	2955
1	1692	2956
1	1815	2957
1	1895	2958
1	1959	2959
1	2300	2980
1	2279	2981
1	2196	2982
1	2078	2983
1	1942	2984
1	1817	2985
1	1705	2986
1	1606	2987
1	1519	2988
1	1446	2989
1	1393	2990
1	1355	2991
1	1341	2992
1	1334	2993
1	1338	2994
1	1373	2995
1	1445	2996
1	1531	2997
1	1615	2998
1	1678	2999
1	1988	2960
1	1974	2961
1	1930	2962
1	1848	2963
1	1760	2964
1	1692	2965
1	1641	2966
1	1613	2967
1	1597	2968
1	1596	2969
1	1618	2970
1	1655	2971
1	1701	2972
1	1753	2973
1	1817	2974
1	1900	2975
1	2006	2976
1	2116	2977
1	2210	2978
1	2275	2979
1	1710	3000
1	1703	3001
1	1652	3002
1	1581	3003
1	1499	3004
1	1428	3005
1	1364	3006
1	1324	3007
1	1296	3008
1	1289	3009
1	1302	3010
1	1329	3011
1	1368	3012
1	1413	3013
1	1467	3014
1	1547	3015
1	1646	3016
1	1757	3017
1	1845	3018
1	1913	3019
1	1944	3020
1	1925	3021
1	1877	3022
1	1775	3023
1	1659	3024
1	1570	3025
1	1490	3026
1	1426	3027
1	1379	3028
1	1368	3029
1	1377	3030
1	1406	3031
1	1435	3032
1	1469	3033
1	1521	3034
1	1598	3035
1	1694	3036
1	1796	3037
1	1890	3038
1	1935	3039
1	2042	3060
1	2016	3061
1	1936	3062
1	1846	3063
1	1734	3064
1	1643	3065
1	1566	3066
1	1519	3067
1	1482	3068
1	1471	3069
1	1476	3070
1	1491	3071
1	1513	3072
1	1538	3073
1	1577	3074
1	1646	3075
1	1738	3076
1	1833	3077
1	1904	3078
1	1960	3079
1	1953	3040
1	1935	3041
1	1875	3042
1	1769	3043
1	1661	3044
1	1567	3045
1	1490	3046
1	1424	3047
1	1398	3048
1	1383	3049
1	1398	3050
1	1427	3051
1	1477	3052
1	1530	3053
1	1592	3054
1	1675	3055
1	1777	3056
1	1886	3057
1	1974	3058
1	2026	3059
1	2018	3100
1	2000	3101
1	1945	3102
1	1848	3103
1	1740	3104
1	1647	3105
1	1568	3106
1	1500	3107
1	1458	3108
1	1440	3109
1	1450	3110
1	1476	3111
1	1514	3112
1	1554	3113
1	1607	3114
1	1683	3115
1	1786	3116
1	1896	3117
1	1989	3118
1	2052	3119
1	1980	3080
1	1961	3081
1	1917	3082
1	1835	3083
1	1737	3084
1	1659	3085
1	1586	3086
1	1531	3087
1	1486	3088
1	1461	3089
1	1463	3090
1	1479	3091
1	1506	3092
1	1534	3093
1	1577	3094
1	1647	3095
1	1739	3096
1	1854	3097
1	1940	3098
1	1998	3099
1	2074	3120
1	2054	3121
1	1980	3122
1	1894	3123
1	1778	3124
1	1683	3125
1	1607	3126
1	1554	3127
1	1512	3128
1	1490	3129
1	1492	3130
1	1503	3131
1	1544	3132
1	1589	3133
1	1643	3134
1	1724	3135
1	1840	3136
1	1953	3137
1	2039	3138
1	2102	3139
1	2123	3140
1	2101	3141
1	2031	3142
1	1935	3143
1	1815	3144
1	1712	3145
1	1626	3146
1	1562	3147
1	1517	3148
1	1494	3149
1	1502	3150
1	1529	3151
1	1578	3152
1	1620	3153
1	1677	3154
1	1759	3155
1	1864	3156
1	1972	3157
1	2052	3158
1	2110	3159
1	2188	3180
1	2170	3181
1	2105	3182
1	2000	3183
1	1887	3184
1	1786	3185
1	1700	3186
1	1638	3187
1	1590	3188
1	1565	3189
1	1563	3190
1	1586	3191
1	1620	3192
1	1659	3193
1	1709	3194
1	1789	3195
1	1893	3196
1	2000	3197
1	2079	3198
1	2143	3199
1	2168	3200
1	2147	3201
1	2093	3202
1	1992	3203
1	1877	3204
1	1770	3205
1	1686	3206
1	1617	3207
1	1566	3208
1	1537	3209
1	1538	3210
1	1557	3211
1	1598	3212
1	1638	3213
1	1691	3214
1	1770	3215
1	1870	3216
1	1972	3217
1	2050	3218
1	2104	3219
1	2131	3160
1	2113	3161
1	2052	3162
1	1949	3163
1	1832	3164
1	1729	3165
1	1652	3166
1	1589	3167
1	1558	3168
1	1551	3169
1	1568	3170
1	1598	3171
1	1639	3172
1	1686	3173
1	1738	3174
1	1822	3175
1	1920	3176
1	2021	3177
1	2106	3178
1	2165	3179
1	2121	3220
1	2101	3221
1	2032	3222
1	1917	3223
1	1773	3224
1	1672	3225
1	1580	3226
1	1507	3227
1	1454	3228
1	1424	3229
1	1420	3230
1	1436	3231
1	1464	3232
1	1500	3233
1	1547	3234
1	1622	3235
1	1723	3236
1	1828	3237
1	1914	3238
1	1971	3239
1	1996	3240
1	1980	3241
1	1904	3242
1	1826	3243
1	1715	3244
1	1618	3245
1	1533	3246
1	1481	3247
1	1438	3248
1	1420	3249
1	1427	3250
1	1450	3251
1	1484	3252
1	1517	3253
1	1555	3254
1	1622	3255
1	1707	3256
1	1809	3257
1	1874	3258
1	1932	3259
1	1910	3300
1	1895	3301
1	1831	3302
1	1742	3303
1	1647	3304
1	1559	3305
1	1485	3306
1	1437	3307
1	1397	3308
1	1370	3309
1	1372	3310
1	1394	3311
1	1423	3312
1	1450	3313
1	1491	3314
1	1555	3315
1	1638	3316
1	1734	3317
1	1808	3318
1	1863	3319
1	1922	3280
1	1899	3281
1	1836	3282
1	1728	3283
1	1609	3284
1	1513	3285
1	1437	3286
1	1368	3287
1	1333	3288
1	1319	3289
1	1325	3290
1	1346	3291
1	1384	3292
1	1425	3293
1	1474	3294
1	1543	3295
1	1634	3296
1	1737	3297
1	1826	3298
1	1886	3299
1	1956	3260
1	1937	3261
1	1891	3262
1	1790	3263
1	1679	3264
1	1581	3265
1	1491	3266
1	1422	3267
1	1360	3268
1	1328	3269
1	1322	3270
1	1337	3271
1	1366	3272
1	1405	3273
1	1453	3274
1	1530	3275
1	1634	3276
1	1747	3277
1	1839	3278
1	1895	3279
1	1886	3320
1	1869	3321
1	1819	3322
1	1715	3323
1	1611	3324
1	1517	3325
1	1451	3326
1	1382	3327
1	1354	3328
1	1345	3329
1	1358	3330
1	1394	3331
1	1431	3332
1	1472	3333
1	1517	3334
1	1590	3335
1	1686	3336
1	1791	3337
1	1885	3338
1	1944	3339
1	1961	3340
1	1942	3341
1	1877	3342
1	1775	3343
1	1664	3344
1	1568	3345
1	1489	3346
1	1415	3347
1	1377	3348
1	1359	3349
1	1364	3350
1	1382	3351
1	1420	3352
1	1450	3353
1	1497	3354
1	1567	3355
1	1660	3356
1	1762	3357
1	1849	3358
1	1909	3359
1	1933	3360
1	1916	3361
1	1849	3362
1	1764	3363
1	1661	3364
1	1569	3365
1	1485	3366
1	1427	3367
1	1373	3368
1	1350	3369
1	1350	3370
1	1369	3371
1	1403	3372
1	1449	3373
1	1501	3374
1	1578	3375
1	1675	3376
1	1783	3377
1	1869	3378
1	1929	3379
1	1960	3380
1	1944	3381
1	1894	3382
1	1791	3383
1	1682	3384
1	1582	3385
1	1503	3386
1	1443	3387
1	1398	3388
1	1372	3389
1	1376	3390
1	1401	3391
1	1433	3392
1	1464	3393
1	1507	3394
1	1579	3395
1	1670	3396
1	1780	3397
1	1875	3398
1	1945	3399
1	1976	3400
1	1963	3401
1	1908	3402
1	1809	3403
1	1685	3404
1	1580	3405
1	1489	3406
1	1407	3407
1	1359	3408
1	1340	3409
1	1350	3410
1	1392	3411
1	1445	3412
1	1500	3413
1	1555	3414
1	1634	3415
1	1729	3416
1	1833	3417
1	1920	3418
1	1974	3419
1	1993	3420
1	1966	3421
1	1880	3422
1	1785	3423
1	1668	3424
1	1567	3425
1	1477	3426
1	1416	3427
1	1364	3428
1	1337	3429
1	1346	3430
1	1384	3431
1	1431	3432
1	1482	3433
1	1538	3434
1	1611	3435
1	1701	3436
1	1791	3437
1	1867	3438
1	1914	3439
1	1929	3440
1	1908	3441
1	1843	3442
1	1737	3443
1	1613	3444
1	1520	3445
1	1438	3446
1	1377	3447
1	1341	3448
1	1325	3449
1	1332	3450
1	1351	3451
1	1398	3452
1	1436	3453
1	1490	3454
1	1571	3455
1	1671	3456
1	1778	3457
1	1869	3458
1	1929	3459
1	1957	3460
1	1947	3461
1	1895	3462
1	1795	3463
1	1688	3464
1	1594	3465
1	1510	3466
1	1433	3467
1	1394	3468
1	1367	3469
1	1368	3470
1	1382	3471
1	1416	3472
1	1450	3473
1	1497	3474
1	1572	3475
1	1667	3476
1	1769	3477
1	1859	3478
1	1920	3479
1	1949	3480
1	1942	3481
1	1874	3482
1	1791	3483
1	1696	3484
1	1607	3485
1	1536	3486
1	1490	3487
1	1454	3488
1	1440	3489
1	1450	3490
1	1479	3491
1	1514	3492
1	1547	3493
1	1583	3494
1	1644	3495
1	1723	3496
1	1821	3497
1	1877	3498
1	1922	3499
1	1931	3500
1	1897	3501
1	1845	3502
1	1749	3503
1	1645	3504
1	1557	3505
1	1485	3506
1	1435	3507
1	1398	3508
1	1379	3509
1	1390	3510
1	1412	3511
1	1445	3512
1	1475	3513
1	1520	3514
1	1594	3515
1	1688	3516
1	1791	3517
1	1884	3518
1	1949	3519
1	1983	3520
1	1974	3521
1	1923	3522
1	1824	3523
1	1705	3524
1	1626	3525
1	1551	3526
1	1494	3527
1	1450	3528
1	1428	3529
1	1428	3530
1	1445	3531
1	1476	3532
1	1508	3533
1	1551	3534
1	1620	3535
1	1712	3536
1	1801	3537
1	1884	3538
1	1940	3539
1	1961	3540
1	1943	3541
1	1862	3542
1	1780	3543
1	1675	3544
1	1584	3545
1	1507	3546
1	1459	3547
1	1417	3548
1	1395	3549
1	1394	3550
1	1412	3551
1	1445	3552
1	1487	3553
1	1541	3554
1	1629	3555
1	1738	3556
1	1867	3557
1	1947	3558
1	2012	3559
1	2037	3560
1	2019	3561
1	1965	3562
1	1865	3563
1	1750	3564
1	1649	3565
1	1559	3566
1	1489	3567
1	1435	3568
1	1402	3569
1	1398	3570
1	1424	3571
1	1468	3572
1	1507	3573
1	1555	3574
1	1631	3575
1	1728	3576
1	1831	3577
1	1913	3578
1	1970	3579
1	1992	3580
1	1973	3581
1	1913	3582
1	1816	3583
1	1698	3584
1	1607	3585
1	1529	3586
1	1476	3587
1	1435	3588
1	1413	3589
1	1410	3590
1	1425	3591
1	1462	3592
1	1503	3593
1	1554	3594
1	1632	3595
1	1729	3596
1	1839	3597
1	1931	3598
1	2000	3599
1	2034	3600
1	2021	3601
1	1945	3602
1	1855	3603
1	1738	3604
1	1635	3605
1	1544	3606
1	1478	3607
1	1422	3608
1	1384	3609
1	1381	3610
1	1398	3611
1	1424	3612
1	1453	3613
1	1497	3614
1	1567	3615
1	1664	3616
1	1785	3617
1	1869	3618
1	1940	3619
1	1974	3620
1	1961	3621
1	1913	3622
1	1817	3623
1	1701	3624
1	1634	3625
1	1577	3626
1	1529	3627
1	1490	3628
1	1469	3629
1	1469	3630
1	1481	3631
1	1504	3632
1	1537	3633
1	1579	3634
1	1646	3635
1	1734	3636
1	1829	3637
1	1905	3638
1	1953	3639
1	1971	3640
1	1951	3641
1	1891	3642
1	1794	3643
1	1697	3644
1	1617	3645
1	1556	3646
1	1497	3647
1	1469	3648
1	1454	3649
1	1463	3650
1	1482	3651
1	1517	3652
1	1549	3653
1	1589	3654
1	1659	3655
1	1751	3656
1	1854	3657
1	1939	3658
1	1999	3659
1	2024	3660
1	2008	3661
1	1935	3662
1	1854	3663
1	1741	3664
1	1649	3665
1	1576	3666
1	1533	3667
1	1503	3668
1	1490	3669
1	1496	3670
1	1518	3671
1	1548	3672
1	1580	3673
1	1620	3674
1	1690	3675
1	1781	3676
1	1886	3677
1	1953	3678
1	2009	3679
1	2031	3680
1	2012	3681
1	1962	3682
1	1861	3683
1	1751	3684
1	1664	3685
1	1595	3686
1	1548	3687
1	1521	3688
1	1514	3689
1	1521	3690
1	1542	3691
1	1567	3692
1	1593	3693
1	1632	3694
1	1696	3695
1	1778	3696
1	1873	3697
1	1947	3698
1	1999	3699
1	2016	3700
1	2000	3701
1	1943	3702
1	1845	3703
1	1736	3704
1	1638	3705
1	1554	3706
1	1476	3707
1	1427	3708
1	1398	3709
1	1397	3710
1	1420	3711
1	1456	3712
1	1499	3713
1	1551	3714
1	1630	3715
1	1725	3716
1	1831	3717
1	1921	3718
1	1976	3719
1	1971	3740
1	1956	3741
1	1906	3742
1	1824	3743
1	1718	3744
1	1634	3745
1	1566	3746
1	1504	3747
1	1460	3748
1	1436	3749
1	1437	3750
1	1453	3751
1	1477	3752
1	1511	3753
1	1557	3754
1	1638	3755
1	1741	3756
1	1857	3757
1	1947	3758
1	2003	3759
1	1998	3720
1	1976	3721
1	1894	3722
1	1803	3723
1	1688	3724
1	1600	3725
1	1530	3726
1	1481	3727
1	1453	3728
1	1448	3729
1	1462	3730
1	1481	3731
1	1519	3732
1	1551	3733
1	1583	3734
1	1641	3735
1	1724	3736
1	1823	3737
1	1888	3738
1	1946	3739
1	2029	3760
1	2012	3761
1	1952	3762
1	1854	3763
1	1738	3764
1	1638	3765
1	1554	3766
1	1484	3767
1	1440	3768
1	1424	3769
1	1431	3770
1	1456	3771
1	1495	3772
1	1531	3773
1	1575	3774
1	1643	3775
1	1740	3776
1	1856	3777
1	1949	3778
1	2015	3779
1	2036	3780
1	2013	3781
1	1943	3782
1	1831	3783
1	1710	3784
1	1599	3785
1	1507	3786
1	1450	3787
1	1406	3788
1	1394	3789
1	1417	3790
1	1462	3791
1	1521	3792
1	1589	3793
1	1664	3794
1	1767	3795
1	1893	3796
1	2011	3797
1	2115	3798
1	2188	3799
1	2234	3800
1	2233	3801
1	2194	3802
1	2115	3803
1	2021	3804
1	1944	3805
1	1881	3806
1	1842	3807
1	1816	3808
1	1801	3809
1	1814	3810
1	1832	3811
1	1851	3812
1	1870	3813
1	1895	3814
1	1942	3815
1	2002	3816
1	2066	3817
1	2104	3818
1	2105	3819
1	2066	3820
1	1986	3821
1	1869	3822
1	1707	3823
1	1534	3824
1	1424	3825
1	1320	3826
1	1256	3827
1	1215	3828
1	1202	3829
1	1217	3830
1	1255	3831
1	1306	3832
1	1357	3833
1	1423	3834
1	1515	3835
1	1630	3836
1	1738	3837
1	1840	3838
1	1906	3839
1	1940	3840
1	1935	3841
1	1881	3842
1	1789	3843
1	1683	3844
1	1586	3845
1	1512	3846
1	1450	3847
1	1400	3848
1	1372	3849
1	1373	3850
1	1398	3851
1	1431	3852
1	1472	3853
1	1521	3854
1	1598	3855
1	1701	3856
1	1798	3857
1	1888	3858
1	1949	3859
1	1976	3860
1	1969	3861
1	1917	3862
1	1827	3863
1	1722	3864
1	1634	3865
1	1569	3866
1	1517	3867
1	1479	3868
1	1456	3869
1	1459	3870
1	1478	3871
1	1511	3872
1	1554	3873
1	1601	3874
1	1674	3875
1	1769	3876
1	1877	3877
1	1961	3878
1	2019	3879
1	2042	3880
1	2019	3881
1	1952	3882
1	1848	3883
1	1729	3884
1	1641	3885
1	1565	3886
1	1508	3887
1	1469	3888
1	1453	3889
1	1471	3890
1	1503	3891
1	1548	3892
1	1595	3893
1	1646	3894
1	1724	3895
1	1820	3896
1	1913	3897
1	1988	3898
1	2037	3899
1	2053	3900
1	2030	3901
1	1966	3902
1	1871	3903
1	1764	3904
1	1677	3905
1	1603	3906
1	1541	3907
1	1494	3908
1	1474	3909
1	1476	3910
1	1503	3911
1	1542	3912
1	1585	3913
1	1638	3914
1	1712	3915
1	1803	3916
1	1890	3917
1	1969	3918
1	2022	3919
1	2039	3920
1	2025	3921
1	1961	3922
1	1861	3923
1	1737	3924
1	1658	3925
1	1585	3926
1	1529	3927
1	1490	3928
1	1475	3929
1	1476	3930
1	1499	3931
1	1531	3932
1	1580	3933
1	1634	3934
1	1712	3935
1	1816	3936
1	1921	3937
1	1995	3938
1	2048	3939
1	2066	3940
1	2051	3941
1	1993	3942
1	1901	3943
1	1796	3944
1	1711	3945
1	1637	3946
1	1577	3947
1	1530	3948
1	1513	3949
1	1518	3950
1	1545	3951
1	1575	3952
1	1607	3953
1	1644	3954
1	1715	3955
1	1817	3956
1	1919	3957
1	2007	3958
1	2070	3959
1	2104	3960
1	2093	3961
1	2034	3962
1	1943	3963
1	1841	3964
1	1748	3965
1	1685	3966
1	1631	3967
1	1592	3968
1	1566	3969
1	1561	3970
1	1577	3971
1	1603	3972
1	1638	3973
1	1681	3974
1	1751	3975
1	1851	3976
1	1949	3977
1	2043	3978
1	2105	3979
1	2131	3980
1	2115	3981
1	2050	3982
1	1942	3983
1	1827	3984
1	1728	3985
1	1647	3986
1	1593	3987
1	1557	3988
1	1541	3989
1	1546	3990
1	1569	3991
1	1605	3992
1	1654	3993
1	1710	3994
1	1788	3995
1	1883	3996
1	1985	3997
1	2066	3998
1	2122	3999
1	2148	4000
1	2135	4001
1	2087	4002
1	2000	4003
1	1898	4004
1	1812	4005
1	1731	4006
1	1665	4006
1	1620	4008
1	1602	4009
1	1607	4010
1	1634	4011
1	1663	4012
1	1693	4013
1	1726	4014
1	1782	4014
1	1865	4016
1	1952	4017
1	2031	4018
1	2088	4019
1	2109	4020
1	2097	4021
1	2041	4022
1	1949	4022
1	1856	4024
1	1773	4025
1	1707	4026
1	1661	4027
1	1629	4028
1	1606	4029
1	1600	4030
1	1611	4030
1	1639	4032
1	1680	4033
1	1731	4034
1	1816	4035
1	1910	4036
1	2000	4037
1	2079	4038
1	2131	4038
1	2147	4040
1	2131	4041
1	2070	4042
1	1969	4043
1	1849	4044
1	1751	4045
1	1665	4046
1	1600	4046
1	1550	4048
1	1526	4049
1	1529	4050
1	1553	4051
1	1582	4052
1	1629	4053
1	1682	4054
1	1754	4054
1	1856	4056
1	1949	4057
1	2025	4058
1	2066	4059
1	1906	4100
1	1893	4101
1	1834	4102
1	1733	4103
1	1620	4104
1	1523	4105
1	1441	4106
1	1376	4107
1	1337	4108
1	1324	4109
1	1338	4110
1	1367	4111
1	1406	4112
1	1454	4113
1	1512	4114
1	1593	4115
1	1697	4116
1	1800	4117
1	1891	4118
1	1948	4119
1	1995	4080
1	1970	4081
1	1897	4082
1	1791	4083
1	1677	4084
1	1580	4085
1	1504	4086
1	1446	4086
1	1398	4088
1	1368	4089
1	1363	4090
1	1381	4091
1	1413	4092
1	1449	4093
1	1494	4094
1	1565	4094
1	1656	4096
1	1740	4097
1	1829	4098
1	1886	4099
1	2073	4060
1	2043	4061
1	1971	4062
1	1868	4062
1	1755	4064
1	1652	4065
1	1572	4066
1	1502	4067
1	1449	4068
1	1420	4069
1	1411	4070
1	1436	4070
1	1468	4072
1	1504	4073
1	1555	4074
1	1632	4075
1	1727	4076
1	1829	4077
1	1913	4078
1	1974	4078
1	1971	4120
1	1949	4121
1	1883	4122
1	1767	4123
1	1629	4124
1	1544	4125
1	1453	4126
1	1384	4127
1	1332	4128
1	1305	4129
1	1299	4130
1	1315	4131
1	1346	4132
1	1394	4133
1	1446	4134
1	1528	4135
1	1631	4136
1	1737	4137
1	1830	4138
1	1886	4139
1	1909	4140
1	1894	4141
1	1829	4142
1	1733	4143
1	1623	4144
1	1529	4145
1	1456	4146
1	1399	4147
1	1355	4148
1	1335	4149
1	1341	4150
1	1359	4151
1	1398	4152
1	1437	4153
1	1477	4154
1	1546	4155
1	1633	4156
1	1718	4157
1	1798	4158
1	1859	4159
1	1886	4160
1	1877	4161
1	1827	4162
1	1736	4163
1	1629	4164
1	1535	4165
1	1451	4166
1	1394	4167
1	1346	4168
1	1319	4169
1	1325	4170
1	1346	4171
1	1379	4172
1	1424	4173
1	1469	4174
1	1536	4175
1	1633	4176
1	1733	4177
1	1831	4178
1	1895	4179
1	1950	4200
1	1937	4201
1	1875	4202
1	1773	4203
1	1660	4204
1	1558	4205
1	1476	4206
1	1404	4207
1	1343	4208
1	1306	4209
1	1297	4210
1	1312	4211
1	1346	4212
1	1393	4213
1	1446	4214
1	1529	4215
1	1630	4216
1	1733	4217
1	1822	4218
1	1878	4219
1	1926	4180
1	1917	4181
1	1863	4182
1	1759	4183
1	1641	4184
1	1531	4185
1	1437	4186
1	1356	4187
1	1308	4188
1	1287	4189
1	1291	4190
1	1321	4191
1	1359	4192
1	1412	4193
1	1466	4194
1	1546	4195
1	1647	4196
1	1756	4197
1	1856	4198
1	1922	4199
1	1898	4220
1	1881	4221
1	1825	4222
1	1719	4223
1	1594	4224
1	1519	4225
1	1446	4226
1	1384	4227
1	1337	4228
1	1319	4229
1	1330	4230
1	1358	4231
1	1404	4232
1	1449	4233
1	1492	4234
1	1554	4235
1	1634	4236
1	1718	4237
1	1790	4238
1	1844	4239
1	1868	4240
1	1847	4241
1	1782	4242
1	1682	4243
1	1571	4244
1	1484	4245
1	1413	4246
1	1350	4247
1	1316	4248
1	1293	4249
1	1296	4250
1	1320	4251
1	1354	4252
1	1399	4253
1	1454	4254
1	1543	4255
1	1647	4256
1	1752	4257
1	1845	4258
1	1908	4259
1	1934	4260
1	1916	4261
1	1855	4262
1	1754	4263
1	1648	4264
1	1557	4265
1	1479	4266
1	1422	4267
1	1364	4268
1	1332	4269
1	1325	4270
1	1346	4271
1	1381	4272
1	1427	4273
1	1476	4274
1	1548	4275
1	1634	4276
1	1715	4277
1	1788	4278
1	1837	4279
1	1844	4280
1	1817	4281
1	1751	4282
1	1657	4283
1	1555	4284
1	1476	4285
1	1412	4286
1	1363	4287
1	1332	4288
1	1324	4289
1	1341	4290
1	1369	4291
1	1403	4292
1	1437	4293
1	1479	4294
1	1553	4295
1	1638	4296
1	1738	4297
1	1819	4298
1	1872	4299
1	1895	4300
1	1878	4301
1	1829	4302
1	1732	4303
1	1622	4304
1	1529	4305
1	1448	4306
1	1378	4307
1	1338	4308
1	1320	4309
1	1328	4310
1	1348	4311
1	1391	4312
1	1426	4313
1	1467	4314
1	1530	4315
1	1612	4316
1	1707	4317
1	1791	4318
1	1857	4319
1	1882	4320
1	1864	4321
1	1799	4322
1	1699	4323
1	1593	4324
1	1499	4325
1	1424	4326
1	1359	4327
1	1320	4328
1	1302	4329
1	1297	4330
1	1319	4331
1	1348	4332
1	1397	4333
1	1450	4334
1	1525	4335
1	1629	4336
1	1738	4337
1	1836	4338
1	1899	4339
1	1922	4340
1	1898	4341
1	1834	4342
1	1731	4343
1	1619	4344
1	1526	4345
1	1458	4346
1	1409	4347
1	1372	4348
1	1357	4349
1	1359	4350
1	1373	4351
1	1384	4352
1	1411	4353
1	1448	4354
1	1508	4355
1	1597	4356
1	1707	4357
1	1801	4358
1	1869	4359
1	1895	4360
1	1879	4361
1	1823	4362
1	1737	4363
1	1635	4364
1	1550	4365
1	1476	4366
1	1404	4367
1	1346	4368
1	1319	4369
1	1319	4370
1	1338	4371
1	1377	4372
1	1424	4373
1	1474	4374
1	1550	4375
1	1639	4376
1	1737	4377
1	1817	4378
1	1871	4379
1	1897	4380
1	1882	4381
1	1822	4382
1	1721	4383
1	1603	4384
1	1498	4385
1	1413	4386
1	1354	4387
1	1310	4388
1	1292	4389
1	1294	4390
1	1319	4391
1	1357	4392
1	1407	4393
1	1460	4394
1	1530	4395
1	1618	4396
1	1709	4397
1	1791	4398
1	1857	4399
1	1891	4400
1	1874	4401
1	1824	4402
1	1724	4403
1	1616	4404
1	1526	4405
1	1450	4406
1	1398	4407
1	1359	4408
1	1345	4409
1	1353	4410
1	1383	4411
1	1418	4412
1	1450	4413
1	1489	4414
1	1549	4415
1	1634	4416
1	1734	4417
1	1820	4418
1	1877	4419
1	1896	4420
1	1873	4421
1	1817	4422
1	1703	4423
1	1563	4424
1	1480	4425
1	1399	4426
1	1345	4427
1	1310	4428
1	1299	4429
1	1315	4430
1	1340	4431
1	1379	4432
1	1430	4433
1	1477	4434
1	1555	4435
1	1660	4436
1	1764	4437
1	1858	4438
1	1919	4439
1	1940	4440
1	1918	4441
1	1852	4442
1	1751	4443
1	1647	4444
1	1552	4445
1	1467	4446
1	1407	4447
1	1359	4448
1	1335	4449
1	1337	4450
1	1358	4451
1	1398	4452
1	1438	4453
1	1486	4454
1	1557	4455
1	1649	4456
1	1738	4457
1	1821	4458
1	1880	4459
1	1904	4460
1	1878	4461
1	1819	4462
1	1719	4463
1	1613	4464
1	1529	4465
1	1458	4466
1	1407	4467
1	1362	4468
1	1345	4469
1	1346	4470
1	1372	4471
1	1413	4472
1	1454	4473
1	1503	4474
1	1576	4475
1	1668	4476
1	1773	4477
1	1865	4478
1	1922	4479
1	1947	4480
1	1923	4481
1	1869	4482
1	1775	4483
1	1674	4484
1	1585	4485
1	1505	4486
1	1438	4487
1	1382	4488
1	1355	4489
1	1355	4490
1	1373	4491
1	1416	4492
1	1452	4493
1	1503	4494
1	1576	4495
1	1668	4496
1	1769	4497
1	1860	4498
1	1922	4499
1	1950	4500
1	1940	4501
1	1880	4502
1	1780	4503
1	1670	4504
1	1571	4505
1	1488	4506
1	1429	4507
1	1381	4508
1	1361	4509
1	1369	4510
1	1398	4511
1	1437	4512
1	1479	4513
1	1521	4514
1	1584	4515
1	1665	4516
1	1750	4517
1	1829	4518
1	1882	4519
1	1899	4520
1	1873	4521
1	1817	4522
1	1703	4523
1	1568	4524
1	1490	4525
1	1420	4526
1	1355	4527
1	1316	4528
1	1293	4529
1	1299	4530
1	1328	4531
1	1368	4532
1	1415	4533
1	1469	4534
1	1548	4535
1	1652	4536
1	1764	4537
1	1859	4538
1	1922	4539
1	1940	4540
1	1921	4541
1	1860	4542
1	1762	4543
1	1657	4544
1	1567	4545
1	1500	4546
1	1445	4547
1	1407	4548
1	1390	4549
1	1391	4550
1	1408	4551
1	1437	4552
1	1462	4553
1	1489	4554
1	1536	4555
1	1610	4556
1	1700	4557
1	1782	4558
1	1849	4559
1	1883	4560
1	1873	4561
1	1819	4562
1	1725	4563
1	1617	4564
1	1520	4565
1	1438	4566
1	1372	4567
1	1323	4568
1	1295	4569
1	1294	4570
1	1319	4571
1	1359	4572
1	1413	4573
1	1476	4574
1	1557	4575
1	1660	4576
1	1760	4577
1	1856	4578
1	1922	4579
1	1949	4580
1	1938	4581
1	1887	4582
1	1783	4583
1	1669	4584
1	1566	4585
1	1481	4586
1	1421	4587
1	1372	4588
1	1346	4589
1	1346	4590
1	1361	4591
1	1384	4592
1	1421	4593
1	1457	4594
1	1525	4595
1	1612	4596
1	1719	4597
1	1813	4598
1	1875	4599
1	1908	4600
1	1898	4601
1	1845	4602
1	1747	4603
1	1632	4604
1	1530	4605
1	1453	4606
1	1398	4607
1	1358	4608
1	1348	4609
1	1367	4610
1	1407	4611
1	1463	4612
1	1526	4613
1	1602	4614
1	1712	4615
1	1845	4616
1	1974	4617
1	2087	4618
1	2170	4619
1	2210	4620
1	2210	4621
1	2158	4622
1	2069	4623
1	1977	4624
1	1895	4625
1	1823	4626
1	1764	4627
1	1730	4628
1	1711	4629
1	1710	4630
1	1733	4631
1	1751	4632
1	1767	4633
1	1788	4634
1	1820	4635
1	1863	4636
1	1897	4637
1	1916	4638
1	1907	4639
1	1868	4640
1	1788	4641
1	1682	4642
1	1548	4643
1	1415	4644
1	1296	4645
1	1213	4646
1	1145	4647
1	1104	4648
1	1094	4649
1	1117	4650
1	1164	4651
1	1220	4652
1	1282	4653
1	1351	4654
1	1450	4655
1	1555	4656
1	1662	4657
1	1747	4658
1	1814	4659
1	1843	4660
1	1832	4661
1	1780	4662
1	1692	4663
1	1592	4664
1	1506	4665
1	1437	4666
1	1376	4667
1	1337	4668
1	1319	4669
1	1320	4670
1	1348	4671
1	1398	4672
1	1445	4673
1	1502	4674
1	1581	4675
1	1679	4676
1	1786	4677
1	1881	4678
1	1947	4679
1	1974	4680
1	1953	4681
1	1888	4682
1	1782	4683
1	1665	4684
1	1571	4685
1	1495	4686
1	1446	4687
1	1402	4688
1	1376	4689
1	1380	4690
1	1403	4691
1	1433	4692
1	1469	4693
1	1521	4694
1	1603	4695
1	1706	4696
1	1817	4697
1	1913	4698
1	1983	4699
1	2017	4700
1	2001	4701
1	1946	4702
1	1841	4703
1	1712	4704
1	1603	4705
1	1515	4706
1	1452	4707
1	1413	4708
1	1398	4709
1	1412	4710
1	1445	4711
1	1480	4712
1	1529	4713
1	1581	4714
1	1660	4715
1	1752	4716
1	1851	4717
1	1922	4718
1	1966	4719
1	1974	4720
1	1940	4721
1	1870	4722
1	1762	4723
1	1632	4724
1	1557	4725
1	1481	4726
1	1427	4727
1	1391	4728
1	1373	4729
1	1394	4730
1	1427	4731
1	1477	4732
1	1530	4733
1	1592	4734
1	1672	4735
1	1786	4736
1	1896	4737
1	1994	4738
1	2053	4739
1	2075	4740
1	2047	4741
1	1974	4742
1	1870	4743
1	1749	4744
1	1647	4745
1	1559	4746
1	1495	4747
1	1446	4748
1	1419	4749
1	1418	4750
1	1437	4751
1	1476	4752
1	1522	4753
1	1575	4754
1	1649	4755
1	1742	4756
1	1843	4757
1	1926	4758
1	1987	4759
1	2013	4760
1	1999	4761
1	1947	4762
1	1853	4763
1	1739	4764
1	1649	4765
1	1581	4766
1	1536	4767
1	1507	4768
1	1494	4769
1	1501	4770
1	1521	4771
1	1546	4772
1	1581	4773
1	1631	4774
1	1708	4775
1	1811	4776
1	1922	4777
1	2009	4778
1	2066	4779
1	2088	4780
1	2064	4781
1	2003	4782
1	1906	4783
1	1792	4784
1	1701	4785
1	1626	4786
1	1556	4787
1	1508	4788
1	1490	4789
1	1495	4790
1	1521	4791
1	1564	4792
1	1606	4793
1	1652	4794
1	1721	4795
1	1816	4796
1	1909	4797
1	1998	4798
1	2060	4799
1	2089	4800
1	2077	4801
1	2017	4802
1	1927	4803
1	1829	4804
1	1741	4805
1	1669	4806
1	1611	4807
1	1567	4808
1	1542	4809
1	1544	4810
1	1566	4811
1	1602	4812
1	1637	4813
1	1685	4814
1	1760	4815
1	1858	4816
1	1958	4817
1	2048	4818
1	2114	4819
1	2136	4820
1	2117	4821
1	2065	4822
1	1965	4823
1	1843	4824
1	1773	4825
1	1710	4826
1	1652	4827
1	1607	4828
1	1586	4829
1	1583	4830
1	1593	4831
1	1613	4832
1	1644	4833
1	1684	4834
1	1746	4835
1	1840	4836
1	1940	4837
1	2030	4838
1	2099	4839
1	2129	4840
1	2120	4841
1	2064	4842
1	1969	4843
1	1858	4844
1	1764	4845
1	1685	4846
1	1618	4847
1	1574	4848
1	1553	4849
1	1553	4850
1	1578	4851
1	1620	4852
1	1660	4853
1	1710	4854
1	1785	4855
1	1877	4856
1	1968	4857
1	2045	4858
1	2101	4859
1	2120	4860
1	2097	4861
1	2029	4862
1	1926	4863
1	1814	4864
1	1707	4865
1	1618	4866
1	1555	4867
1	1505	4868
1	1476	4869
1	1472	4870
1	1490	4871
1	1529	4872
1	1574	4873
1	1625	4874
1	1701	4875
1	1801	4876
1	1899	4877
1	1985	4878
1	2040	4879
1	2062	4880
1	2039	4881
1	1982	4882
1	1882	4883
1	1764	4884
1	1664	4885
1	1581	4886
1	1517	4887
1	1464	4888
1	1430	4889
1	1424	4890
1	1442	4891
1	1469	4892
1	1507	4893
1	1548	4894
1	1607	4895
1	1692	4896
1	1787	4897
1	1868	4898
1	1922	4899
1	1946	4900
1	1923	4901
1	1867	4902
1	1763	4903
1	1650	4904
1	1550	4905
1	1472	4906
1	1401	4907
1	1353	4908
1	1328	4909
1	1323	4910
1	1336	4911
1	1367	4912
1	1410	4913
1	1461	4914
1	1539	4915
1	1634	4916
1	1737	4917
1	1824	4918
1	1883	4919
1	1908	4920
1	1899	4921
1	1846	4922
1	1751	4923
1	1647	4924
1	1555	4925
1	1476	4926
1	1416	4927
1	1355	4928
1	1333	4929
1	1332	4930
1	1346	4931
1	1372	4932
1	1411	4933
1	1451	4934
1	1521	4935
1	1607	4936
1	1707	4937
1	1790	4938
1	1852	4939
1	1872	4940
1	1857	4941
1	1796	4942
1	1700	4943
1	1593	4944
1	1502	4945
1	1433	4946
1	1378	4947
1	1346	4948
1	1334	4949
1	1346	4950
1	1377	4951
1	1415	4952
1	1450	4953
1	1498	4954
1	1567	4955
1	1660	4956
1	1764	4957
1	1847	4958
1	1904	4959
1	1924	4960
1	1903	4961
1	1841	4962
1	1738	4963
1	1630	4964
1	1538	4965
1	1463	4966
1	1394	4967
1	1346	4968
1	1319	4969
1	1315	4970
1	1331	4971
1	1370	4972
1	1421	4973
1	1477	4974
1	1559	4975
1	1664	4976
1	1769	4977
1	1858	4978
1	1913	4979
1	1935	4980
1	1917	4981
1	1852	4982
1	1743	4983
1	1629	4984
1	1528	4985
1	1437	4986
1	1368	4987
1	1314	4988
1	1283	4989
1	1285	4990
1	1318	4991
1	1369	4992
1	1426	4993
1	1485	4994
1	1571	4995
1	1673	4996
1	1773	4997
1	1869	4998
1	1937	4999
1	1969	5000
1	1955	5001
1	1904	5002
1	1803	5003
1	1688	5004
1	1587	5005
1	1505	5006
1	1440	5007
1	1382	5008
1	1346	5009
1	1343	5010
1	1354	5011
1	1374	5012
1	1411	5013
1	1453	5014
1	1528	5015
1	1623	5016
1	1737	5017
1	1834	5018
1	1904	5019
1	1939	5020
1	1926	5021
1	1881	5022
1	1783	5023
1	1647	5024
1	1570	5025
1	1476	5026
1	1403	5027
1	1346	5028
1	1323	5029
1	1328	5030
1	1350	5031
1	1395	5032
1	1442	5033
1	1503	5034
1	1582	5035
1	1687	5036
1	1791	5037
1	1881	5038
1	1940	5039
1	1935	5060
1	1911	5061
1	1857	5062
1	1756	5063
1	1649	5064
1	1555	5065
1	1478	5066
1	1423	5067
1	1376	5068
1	1359	5069
1	1364	5070
1	1392	5071
1	1425	5072
1	1466	5073
1	1517	5074
1	1595	5075
1	1693	5076
1	1800	5077
1	1892	5078
1	1947	5079
1	1961	5040
1	1938	5041
1	1869	5042
1	1764	5043
1	1647	5044
1	1548	5045
1	1471	5046
1	1420	5047
1	1377	5048
1	1368	5049
1	1377	5050
1	1409	5051
1	1443	5052
1	1481	5053
1	1530	5054
1	1605	5055
1	1697	5056
1	1786	5057
1	1862	5058
1	1914	5059
1	1963	5080
1	1934	5081
1	1859	5082
1	1744	5083
1	1625	5084
1	1521	5085
1	1440	5086
1	1377	5087
1	1337	5088
1	1317	5089
1	1319	5090
1	1333	5091
1	1371	5092
1	1413	5093
1	1459	5094
1	1538	5095
1	1631	5096
1	1729	5097
1	1823	5098
1	1893	5099
1	1923	5100
1	1919	5101
1	1867	5102
1	1775	5103
1	1673	5104
1	1581	5105
1	1499	5106
1	1435	5107
1	1379	5108
1	1354	5109
1	1355	5110
1	1373	5111
1	1407	5112
1	1440	5113
1	1479	5114
1	1545	5115
1	1634	5116
1	1726	5117
1	1817	5118
1	1882	5119
1	1917	5120
1	1908	5121
1	1860	5122
1	1760	5123
1	1634	5124
1	1563	5125
1	1490	5126
1	1425	5127
1	1372	5128
1	1346	5129
1	1346	5130
1	1368	5131
1	1406	5132
1	1450	5133
1	1503	5134
1	1582	5135
1	1686	5136
1	1791	5137
1	1882	5138
1	1940	5139
1	1962	5140
1	1956	5141
1	1899	5142
1	1809	5143
1	1700	5144
1	1607	5145
1	1527	5146
1	1453	5147
1	1404	5148
1	1372	5149
1	1368	5150
1	1377	5151
1	1413	5152
1	1443	5153
1	1490	5154
1	1566	5155
1	1662	5156
1	1764	5157
1	1862	5158
1	1932	5159
1	1968	5160
1	1958	5161
1	1895	5162
1	1791	5163
1	1675	5164
1	1575	5165
1	1484	5166
1	1420	5167
1	1367	5168
1	1341	5169
1	1341	5170
1	1355	5171
1	1382	5172
1	1422	5173
1	1465	5174
1	1536	5175
1	1629	5176
1	1720	5177
1	1808	5178
1	1869	5179
1	1919	5200
1	1900	5201
1	1843	5202
1	1738	5203
1	1626	5204
1	1529	5205
1	1453	5206
1	1400	5207
1	1368	5208
1	1363	5209
1	1379	5210
1	1417	5211
1	1466	5212
1	1513	5213
1	1564	5214
1	1634	5215
1	1718	5216
1	1817	5217
1	1897	5218
1	1953	5219
1	1900	5180
1	1893	5181
1	1848	5182
1	1761	5183
1	1660	5184
1	1575	5185
1	1503	5186
1	1450	5187
1	1416	5188
1	1398	5189
1	1400	5190
1	1422	5191
1	1445	5192
1	1476	5193
1	1512	5194
1	1576	5195
1	1657	5196
1	1751	5197
1	1836	5198
1	1893	5199
1	1972	5220
1	1948	5221
1	1881	5222
1	1769	5223
1	1660	5224
1	1561	5225
1	1484	5226
1	1423	5227
1	1381	5228
1	1350	5229
1	1356	5230
1	1376	5231
1	1412	5232
1	1455	5233
1	1503	5234
1	1581	5235
1	1676	5236
1	1774	5237
1	1865	5238
1	1926	5239
1	1949	5240
1	1935	5241
1	1877	5242
1	1778	5243
1	1665	5244
1	1582	5245
1	1505	5246
1	1451	5247
1	1412	5248
1	1395	5249
1	1400	5250
1	1425	5251
1	1454	5252
1	1490	5253
1	1530	5254
1	1597	5255
1	1683	5256
1	1779	5257
1	1860	5258
1	1913	5259
1	1936	5260
1	1922	5261
1	1869	5262
1	1778	5263
1	1668	5264
1	1576	5265
1	1499	5266
1	1438	5267
1	1395	5268
1	1368	5269
1	1371	5270
1	1398	5271
1	1438	5272
1	1483	5273
1	1530	5274
1	1602	5275
1	1696	5276
1	1798	5277
1	1893	5278
1	1957	5279
1	1992	5280
1	1988	5281
1	1931	5282
1	1837	5283
1	1721	5284
1	1620	5285
1	1531	5286
1	1468	5287
1	1413	5288
1	1374	5289
1	1368	5290
1	1383	5291
1	1420	5292
1	1461	5293
1	1510	5294
1	1589	5295
1	1688	5296
1	1795	5297
1	1901	5298
1	1976	5299
1	2015	5300
1	2012	5301
1	1974	5302
1	1894	5303
1	1788	5304
1	1697	5305
1	1613	5306
1	1549	5307
1	1497	5308
1	1463	5309
1	1457	5310
1	1476	5311
1	1494	5312
1	1526	5313
1	1555	5314
1	1612	5315
1	1691	5316
1	1786	5317
1	1861	5318
1	1913	5319
1	1935	5320
1	1917	5321
1	1863	5322
1	1764	5323
1	1644	5324
1	1583	5325
1	1521	5326
1	1468	5327
1	1429	5328
1	1409	5329
1	1411	5330
1	1428	5331
1	1463	5332
1	1498	5333
1	1542	5334
1	1606	5335
1	1698	5336
1	1791	5337
1	1873	5338
1	1922	5339
1	1935	5340
1	1901	5341
1	1822	5342
1	1709	5343
1	1589	5344
1	1499	5345
1	1432	5346
1	1384	5347
1	1354	5348
1	1344	5349
1	1351	5350
1	1379	5351
1	1422	5352
1	1458	5353
1	1503	5354
1	1575	5355
1	1664	5356
1	1758	5357
1	1846	5358
1	1908	5359
1	1933	5360
1	1914	5361
1	1862	5362
1	1764	5363
1	1658	5364
1	1567	5365
1	1497	5366
1	1448	5367
1	1410	5368
1	1392	5369
1	1398	5370
1	1427	5371
1	1459	5372
1	1502	5373
1	1544	5374
1	1609	5375
1	1698	5376
1	1803	5377
1	1893	5378
1	1951	5379
1	1979	5380
1	1961	5381
1	1897	5382
1	1798	5383
1	1697	5384
1	1607	5385
1	1529	5386
1	1467	5387
1	1420	5388
1	1382	5389
1	1369	5390
1	1379	5391
1	1421	5392
1	1460	5393
1	1508	5394
1	1584	5395
1	1675	5396
1	1773	5397
1	1868	5398
1	1932	5399
1	1957	5400
1	1939	5401
1	1874	5402
1	1777	5403
1	1665	5404
1	1566	5405
1	1477	5406
1	1420	5407
1	1366	5408
1	1337	5409
1	1341	5410
1	1363	5411
1	1398	5412
1	1431	5413
1	1472	5414
1	1544	5415
1	1642	5416
1	1742	5417
1	1845	5418
1	1926	5419
1	1975	5420
1	1989	5421
1	1963	5422
1	1895	5423
1	1791	5424
1	1747	5425
1	1702	5426
1	1660	5427
1	1635	5428
1	1641	5429
1	1670	5430
1	1708	5431
1	1749	5432
1	1792	5433
1	1854	5434
1	1935	5435
1	2042	5436
1	2157	5437
1	2256	5438
1	2314	5439
1	2332	5440
1	2315	5441
1	2248	5442
1	2131	5443
1	1993	5444
1	1862	5445
1	1735	5446
1	1613	5447
1	1514	5448
1	1435	5449
1	1377	5450
1	1346	5451
1	1341	5452
1	1346	5453
1	1361	5454
1	1413	5455
1	1478	5456
1	1557	5457
1	1634	5458
1	1689	5459
1	1723	5460
1	1712	5461
1	1659	5462
1	1575	5463
1	1485	5464
1	1412	5465
1	1351	5466
1	1319	5467
1	1293	5468
1	1292	5469
1	1309	5470
1	1338	5471
1	1374	5472
1	1424	5473
1	1476	5474
1	1553	5475
1	1655	5476
1	1760	5477
1	1858	5478
1	1922	5479
1	1952	5480
1	1939	5481
1	1890	5482
1	1788	5483
1	1665	5484
1	1557	5485
1	1468	5486
1	1400	5487
1	1346	5488
1	1330	5489
1	1341	5490
1	1372	5491
1	1420	5492
1	1472	5493
1	1529	5494
1	1610	5495
1	1713	5496
1	1831	5497
1	1922	5498
1	1989	5499
1	2021	5500
1	2009	5501
1	1960	5502
1	1871	5503
1	1764	5504
1	1682	5505
1	1607	5506
1	1546	5507
1	1503	5508
1	1480	5509
1	1477	5510
1	1495	5511
1	1528	5512
1	1554	5513
1	1589	5514
1	1657	5515
1	1749	5516
1	1856	5517
1	1944	5518
1	2000	5519
1	2024	5520
1	2006	5521
1	1948	5522
1	1853	5523
1	1744	5524
1	1660	5525
1	1585	5526
1	1530	5527
1	1492	5528
1	1455	5529
1	1456	5530
1	1472	5531
1	1501	5532
1	1533	5533
1	1577	5534
1	1647	5535
1	1739	5536
1	1836	5537
1	1919	5538
1	1975	5539
1	2000	5540
1	1980	5541
1	1931	5542
1	1841	5543
1	1727	5544
1	1639	5545
1	1566	5546
1	1511	5547
1	1477	5548
1	1464	5549
1	1476	5550
1	1509	5551
1	1543	5552
1	1585	5553
1	1633	5554
1	1698	5555
1	1780	5556
1	1881	5557
1	1958	5558
1	2014	5559
1	2040	5560
1	2026	5561
1	1973	5562
1	1877	5563
1	1765	5564
1	1674	5565
1	1598	5566
1	1541	5567
1	1499	5568
1	1476	5569
1	1477	5570
1	1502	5571
1	1541	5572
1	1581	5573
1	1629	5574
1	1701	5575
1	1798	5576
1	1903	5577
1	1989	5578
1	2052	5579
1	2081	5580
1	2070	5581
1	2012	5582
1	1911	5583
1	1808	5584
1	1712	5585
1	1635	5586
1	1590	5587
1	1557	5588
1	1546	5589
1	1548	5590
1	1557	5591
1	1580	5592
1	1610	5593
1	1657	5594
1	1738	5595
1	1843	5596
1	1948	5597
1	2039	5598
1	2105	5599
1	2131	5600
1	2117	5601
1	2066	5602
1	1966	5603
1	1852	5604
1	1751	5605
1	1670	5606
1	1612	5607
1	1573	5608
1	1554	5609
1	1555	5610
1	1577	5611
1	1605	5612
1	1640	5613
1	1686	5614
1	1755	5615
1	1854	5616
1	1962	5617
1	2051	5618
1	2109	5619
1	2137	5620
1	2119	5621
1	2063	5622
1	1960	5623
1	1821	5624
1	1751	5625
1	1675	5626
1	1622	5627
1	1589	5628
1	1586	5629
1	1602	5630
1	1625	5631
1	1651	5632
1	1679	5633
1	1715	5634
1	1776	5635
1	1873	5636
1	1974	5637
1	2066	5638
1	2142	5639
1	2179	5640
1	2173	5641
1	2115	5642
1	2014	5643
1	1895	5644
1	1785	5645
1	1703	5646
1	1654	5647
1	1615	5648
1	1602	5649
1	1607	5650
1	1634	5651
1	1670	5652
1	1711	5653
1	1752	5654
1	1825	5655
1	1911	5656
1	2000	5657
1	2080	5658
1	2137	5659
1	2161	5660
1	2147	5661
1	2101	5662
1	2002	5663
1	1895	5664
1	1795	5665
1	1717	5666
1	1656	5667
1	1607	5668
1	1581	5669
1	1577	5670
1	1592	5671
1	1619	5672
1	1659	5673
1	1702	5674
1	1773	5675
1	1869	5676
1	1974	5677
1	2057	5678
1	2117	5679
1	2143	5680
1	2124	5681
1	2063	5682
1	1957	5683
1	1832	5684
1	1718	5685
1	1620	5686
1	1538	5687
1	1477	5688
1	1450	5689
1	1449	5690
1	1474	5691
1	1516	5692
1	1564	5693
1	1612	5694
1	1685	5695
1	1774	5696
1	1872	5697
1	1958	5698
1	2016	5699
1	2038	5700
1	2014	5701
1	1945	5702
1	1843	5703
1	1724	5704
1	1623	5705
1	1539	5706
1	1476	5707
1	1427	5708
1	1400	5709
1	1399	5710
1	1424	5711
1	1459	5712
1	1502	5713
1	1543	5714
1	1607	5715
1	1693	5716
1	1782	5717
1	1868	5718
1	1923	5719
1	1952	5720
1	1940	5721
1	1897	5722
1	1811	5723
1	1703	5724
1	1600	5725
1	1517	5726
1	1447	5727
1	1384	5728
1	1353	5729
1	1346	5730
1	1364	5731
1	1397	5732
1	1433	5733
1	1478	5734
1	1544	5735
1	1633	5736
1	1724	5737
1	1803	5738
1	1865	5739
1	1890	5740
1	1886	5741
1	1836	5742
1	1742	5743
1	1638	5744
1	1551	5745
1	1476	5746
1	1419	5747
1	1379	5748
1	1369	5749
1	1379	5750
1	1413	5751
1	1459	5752
1	1503	5753
1	1540	5754
1	1598	5755
1	1677	5756
1	1764	5757
1	1841	5758
1	1883	5759
1	1896	5760
1	1873	5761
1	1817	5762
1	1720	5763
1	1613	5764
1	1525	5765
1	1449	5766
1	1398	5767
1	1356	5768
1	1343	5769
1	1351	5770
1	1374	5771
1	1413	5772
1	1459	5773
1	1513	5774
1	1594	5775
1	1692	5776
1	1798	5777
1	1899	5778
1	1964	5779
1	1989	5780
1	1963	5781
1	1901	5782
1	1792	5783
1	1673	5784
1	1567	5785
1	1476	5786
1	1409	5787
1	1359	5788
1	1332	5789
1	1332	5790
1	1348	5791
1	1377	5792
1	1424	5793
1	1472	5794
1	1548	5795
1	1642	5796
1	1747	5797
1	1844	5798
1	1908	5799
1	1944	5800
1	1937	5801
1	1895	5802
1	1811	5803
1	1703	5804
1	1611	5805
1	1538	5806
1	1476	5807
1	1433	5808
1	1411	5809
1	1408	5810
1	1424	5811
1	1461	5812
1	1495	5813
1	1532	5814
1	1593	5815
1	1672	5816
1	1760	5817
1	1841	5818
1	1890	5819
1	1909	5820
1	1895	5821
1	1833	5822
1	1734	5823
1	1612	5824
1	1521	5825
1	1438	5826
1	1375	5827
1	1341	5828
1	1319	5829
1	1332	5830
1	1359	5831
1	1398	5832
1	1446	5833
1	1503	5834
1	1591	5835
1	1703	5836
1	1818	5837
1	1914	5838
1	1983	5839
1	2011	5840
1	1994	5841
1	1933	5842
1	1834	5843
1	1707	5844
1	1607	5845
1	1514	5846
1	1438	5847
1	1376	5848
1	1346	5849
1	1344	5850
1	1371	5851
1	1410	5852
1	1451	5853
1	1504	5854
1	1582	5855
1	1678	5856
1	1787	5857
1	1873	5858
1	1940	5859
1	1969	5860
1	1949	5861
1	1887	5862
1	1785	5863
1	1669	5864
1	1579	5865
1	1503	5866
1	1448	5867
1	1413	5868
1	1401	5869
1	1413	5870
1	1436	5871
1	1469	5872
1	1502	5873
1	1530	5874
1	1587	5875
1	1663	5876
1	1759	5877
1	1843	5878
1	1898	5879
1	1917	5880
1	1890	5881
1	1823	5882
1	1729	5883
1	1633	5884
1	1551	5885
1	1481	5886
1	1437	5887
1	1398	5888
1	1373	5889
1	1382	5890
1	1416	5891
1	1450	5892
1	1487	5893
1	1528	5894
1	1587	5895
1	1668	5896
1	1755	5897
1	1843	5898
1	1903	5899
1	1935	5900
1	1927	5901
1	1883	5902
1	1791	5903
1	1688	5904
1	1599	5905
1	1523	5906
1	1462	5907
1	1422	5908
1	1398	5909
1	1398	5910
1	1412	5911
1	1436	5912
1	1467	5913
1	1508	5914
1	1570	5915
1	1656	5916
1	1751	5917
1	1838	5918
1	1893	5919
1	1916	5920
1	1895	5921
1	1842	5922
1	1738	5923
1	1634	5924
1	1535	5925
1	1460	5926
1	1403	5927
1	1358	5928
1	1344	5929
1	1356	5930
1	1393	5931
1	1437	5932
1	1487	5933
1	1544	5934
1	1621	5935
1	1724	5936
1	1826	5937
1	1911	5938
1	1967	5939
1	1983	5940
1	1952	5941
1	1873	5942
1	1764	5943
1	1643	5944
1	1539	5945
1	1455	5946
1	1403	5947
1	1362	5948
1	1346	5949
1	1354	5950
1	1382	5951
1	1427	5952
1	1476	5953
1	1528	5954
1	1607	5955
1	1698	5956
1	1791	5957
1	1877	5958
1	1934	5959
1	1958	5960
1	1942	5961
1	1895	5962
1	1792	5963
1	1674	5964
1	1571	5965
1	1482	5966
1	1418	5967
1	1372	5968
1	1356	5969
1	1368	5970
1	1398	5971
1	1427	5972
1	1471	5973
1	1526	5974
1	1607	5975
1	1713	5976
1	1835	5977
1	1922	5978
1	1981	5979
1	2001	5980
1	1973	5981
1	1895	5982
1	1780	5983
1	1660	5984
1	1555	5985
1	1475	5986
1	1411	5987
1	1359	5988
1	1334	5989
1	1333	5990
1	1350	5991
1	1395	5992
1	1439	5993
1	1494	5994
1	1579	5995
1	1677	5996
1	1782	5997
1	1877	5998
1	1942	5999
1	1975	6000
1	1968	6001
1	1914	6002
1	1823	6003
1	1712	6004
1	1613	6005
1	1529	6006
1	1468	6007
1	1418	6008
1	1382	6009
1	1380	6010
1	1399	6011
1	1426	6012
1	1459	6013
1	1503	6014
1	1580	6015
1	1678	6016
1	1777	6017
1	1869	6018
1	1931	6019
1	1956	6020
1	1937	6021
1	1886	6022
1	1785	6023
1	1675	6024
1	1580	6025
1	1504	6026
1	1443	6027
1	1398	6028
1	1374	6029
1	1379	6030
1	1404	6031
1	1443	6032
1	1490	6033
1	1547	6034
1	1622	6035
1	1713	6036
1	1817	6037
1	1898	6038
1	1959	6039
1	1976	6040
1	1963	6041
1	1901	6042
1	1793	6043
1	1680	6044
1	1581	6045
1	1497	6046
1	1424	6047
1	1364	6048
1	1330	6049
1	1319	6050
1	1337	6051
1	1377	6052
1	1424	6053
1	1481	6054
1	1570	6055
1	1679	6056
1	1791	6057
1	1890	6058
1	1953	6059
1	1986	6060
1	1976	6061
1	1921	6062
1	1824	6063
1	1705	6064
1	1605	6065
1	1518	6066
1	1463	6067
1	1424	6068
1	1409	6069
1	1424	6070
1	1449	6071
1	1484	6072
1	1526	6073
1	1569	6074
1	1634	6075
1	1721	6076
1	1817	6077
1	1899	6078
1	1962	6079
1	1992	6080
1	1978	6081
1	1939	6082
1	1845	6083
1	1737	6084
1	1647	6085
1	1580	6086
1	1525	6087
1	1481	6088
1	1458	6089
1	1456	6090
1	1473	6091
1	1494	6092
1	1529	6093
1	1571	6094
1	1635	6095
1	1729	6096
1	1841	6097
1	1922	6098
1	1984	6099
1	2003	6100
1	1981	6101
1	1923	6102
1	1838	6103
1	1736	6104
1	1644	6105
1	1562	6106
1	1491	6107
1	1439	6108
1	1408	6109
1	1398	6110
1	1409	6111
1	1444	6112
1	1481	6113
1	1530	6114
1	1602	6115
1	1694	6116
1	1793	6117
1	1890	6118
1	1953	6119
1	1980	6120
1	1968	6121
1	1903	6122
1	1791	6123
1	1674	6124
1	1575	6125
1	1494	6126
1	1443	6127
1	1402	6128
1	1372	6129
1	1373	6130
1	1398	6131
1	1428	6132
1	1467	6133
1	1515	6134
1	1596	6135
1	1699	6136
1	1809	6137
1	1904	6138
1	1972	6139
1	1998	6140
1	1976	6141
1	1921	6142
1	1818	6143
1	1701	6144
1	1597	6145
1	1511	6146
1	1445	6147
1	1395	6148
1	1371	6149
1	1375	6150
1	1407	6151
1	1444	6152
1	1487	6153
1	1533	6154
1	1605	6155
1	1700	6156
1	1802	6157
1	1900	6158
1	1960	6159
1	1991	6160
1	1979	6161
1	1934	6162
1	1848	6163
1	1738	6164
1	1646	6165
1	1566	6166
1	1489	6167
1	1427	6168
1	1394	6169
1	1380	6170
1	1395	6171
1	1418	6172
1	1448	6173
1	1495	6174
1	1566	6175
1	1659	6176
1	1762	6177
1	1856	6178
1	1921	6179
1	1950	6180
1	1939	6181
1	1879	6182
1	1783	6183
1	1668	6184
1	1577	6185
1	1498	6186
1	1445	6187
1	1404	6188
1	1377	6189
1	1380	6190
1	1402	6191
1	1435	6192
1	1471	6193
1	1512	6194
1	1584	6195
1	1682	6196
1	1776	6197
1	1869	6198
1	1939	6199
1	1976	6200
1	1973	6201
1	1934	6202
1	1844	6203
1	1730	6204
1	1636	6205
1	1561	6206
1	1507	6207
1	1475	6208
1	1463	6209
1	1476	6210
1	1512	6211
1	1557	6212
1	1618	6213
1	1686	6214
1	1775	6215
1	1895	6216
1	2024	6217
1	2131	6218
1	2214	6219
1	2264	6220
1	2268	6221
1	2235	6222
1	2155	6223
1	2066	6224
1	1983	6225
1	1917	6226
1	1865	6227
1	1821	6228
1	1783	6229
1	1764	6230
1	1752	6231
1	1742	6232
1	1731	6233
1	1715	6234
1	1716	6235
1	1749	6236
1	1787	6237
1	1818	6238
1	1825	6239
1	1802	6240
1	1747	6241
1	1658	6242
1	1543	6243
1	1417	6244
1	1318	6245
1	1241	6246
1	1190	6247
1	1153	6248
1	1139	6249
1	1154	6250
1	1189	6251
1	1238	6252
1	1295	6253
1	1362	6254
1	1458	6255
1	1578	6256
1	1698	6257
1	1814	6258
1	1899	6259
1	1947	6260
1	1948	6261
1	1913	6262
1	1823	6263
1	1710	6264
1	1609	6265
1	1526	6266
1	1458	6267
1	1411	6268
1	1384	6269
1	1393	6270
1	1422	6271
1	1454	6272
1	1503	6273
1	1562	6274
1	1646	6275
1	1751	6276
1	1867	6277
1	1957	6278
1	2017	6279
1	2041	6280
1	2015	6281
1	1947	6282
1	1840	6283
1	1711	6284
1	1596	6285
1	1502	6286
1	1428	6287
1	1371	6288
1	1343	6289
1	1337	6290
1	1364	6291
1	1422	6292
1	1481	6293
1	1554	6294
1	1652	6295
1	1765	6296
1	1885	6297
1	1976	6298
1	2045	6299
1	2075	6300
1	2052	6301
1	1985	6302
1	1885	6303
1	1764	6304
1	1665	6305
1	1580	6306
1	1520	6307
1	1469	6308
1	1441	6309
1	1441	6310
1	1464	6311
1	1499	6312
1	1531	6313
1	1579	6314
1	1653	6315
1	1750	6316
1	1851	6317
1	1939	6318
1	2003	6319
1	2034	6320
1	2026	6321
1	1987	6322
1	1895	6323
1	1791	6324
1	1695	6325
1	1620	6326
1	1553	6327
1	1503	6328
1	1474	6329
1	1466	6330
1	1476	6331
1	1503	6332
1	1538	6333
1	1582	6334
1	1647	6335
1	1738	6336
1	1849	6337
1	1944	6338
1	2011	6339
1	2043	6340
1	2039	6341
1	1988	6342
1	1895	6343
1	1782	6344
1	1686	6345
1	1607	6346
1	1543	6347
1	1503	6348
1	1488	6349
1	1491	6350
1	1506	6351
1	1544	6352
1	1581	6353
1	1629	6354
1	1709	6355
1	1815	6356
1	1921	6357
1	2013	6358
1	2073	6359
1	2104	6360
1	2084	6361
1	2025	6362
1	1929	6363
1	1817	6364
1	1712	6365
1	1621	6366
1	1563	6367
1	1513	6368
1	1488	6369
1	1490	6370
1	1517	6371
1	1555	6372
1	1595	6373
1	1642	6374
1	1712	6375
1	1812	6376
1	1908	6377
1	1999	6378
1	2061	6379
1	2130	6400
1	2100	6401
1	2031	6402
1	1932	6403
1	1816	6404
1	1717	6405
1	1647	6406
1	1594	6407
1	1567	6408
1	1564	6409
1	1581	6410
1	1610	6411
1	1664	6412
1	1712	6413
1	1760	6414
1	1842	6415
1	1939	6416
1	2050	6417
1	2137	6418
1	2197	6419
1	2090	6380
1	2078	6381
1	2039	6382
1	1952	6383
1	1848	6384
1	1760	6385
1	1686	6386
1	1630	6387
1	1587	6388
1	1567	6389
1	1569	6390
1	1593	6391
1	1626	6392
1	1673	6393
1	1724	6394
1	1791	6395
1	1877	6396
1	1981	6397
1	2063	6398
1	2115	6399
1	2228	6420
1	2209	6421
1	2143	6422
1	2041	6423
1	1922	6424
1	1829	6425
1	1737	6426
1	1673	6427
1	1616	6428
1	1576	6429
1	1570	6430
1	1583	6431
1	1620	6432
1	1665	6433
1	1715	6434
1	1790	6435
1	1885	6436
1	1981	6437
1	2068	6438
1	2133	6439
1	2163	6440
1	2147	6441
1	2093	6442
1	2000	6443
1	1890	6444
1	1811	6445
1	1731	6446
1	1670	6447
1	1629	6448
1	1607	6449
1	1611	6450
1	1638	6451
1	1673	6452
1	1716	6453
1	1767	6454
1	1838	6455
1	1917	6456
1	2024	6457
1	2102	6458
1	2157	6459
1	2181	6460
1	2157	6461
1	2092	6462
1	1983	6463
1	1859	6464
1	1749	6465
1	1660	6466
1	1584	6467
1	1533	6468
1	1508	6469
1	1511	6470
1	1528	6471
1	1564	6472
1	1598	6473
1	1639	6474
1	1710	6475
1	1799	6476
1	1895	6477
1	1975	6478
1	2030	6479
1	2053	6480
1	2032	6481
1	1973	6482
1	1871	6483
1	1752	6484
1	1657	6485
1	1574	6486
1	1521	6487
1	1472	6488
1	1441	6489
1	1437	6490
1	1453	6491
1	1486	6492
1	1524	6493
1	1558	6494
1	1625	6495
1	1709	6496
1	1793	6497
1	1873	6498
1	1926	6499
1	1948	6500
1	1923	6501
1	1877	6502
1	1774	6503
1	1659	6504
1	1555	6505
1	1471	6506
1	1404	6507
1	1353	6508
1	1335	6509
1	1346	6510
1	1377	6511
1	1423	6512
1	1472	6513
1	1518	6514
1	1593	6515
1	1680	6516
1	1791	6517
1	1884	6518
1	1945	6519
1	1874	6540
1	1863	6541
1	1803	6542
1	1712	6543
1	1600	6544
1	1500	6545
1	1413	6546
1	1360	6547
1	1323	6548
1	1310	6549
1	1317	6550
1	1337	6551
1	1372	6552
1	1423	6553
1	1476	6554
1	1555	6555
1	1655	6556
1	1759	6557
1	1856	6558
1	1927	6559
1	1969	6520
1	1948	6521
1	1891	6522
1	1788	6523
1	1676	6524
1	1586	6525
1	1515	6526
1	1463	6527
1	1424	6528
1	1399	6529
1	1395	6530
1	1402	6531
1	1422	6532
1	1446	6533
1	1478	6534
1	1538	6535
1	1623	6536
1	1709	6537
1	1788	6538
1	1847	6539
1	1959	6560
1	1936	6561
1	1895	6562
1	1792	6563
1	1671	6564
1	1562	6565
1	1472	6566
1	1394	6567
1	1332	6568
1	1304	6569
1	1309	6570
1	1342	6571
1	1384	6572
1	1438	6573
1	1494	6574
1	1571	6575
1	1659	6576
1	1772	6577
1	1862	6578
1	1922	6579
1	1972	6600
1	1962	6601
1	1907	6602
1	1817	6603
1	1700	6604
1	1605	6605
1	1512	6606
1	1455	6607
1	1409	6608
1	1380	6609
1	1380	6610
1	1403	6611
1	1440	6612
1	1477	6613
1	1523	6614
1	1591	6615
1	1677	6616
1	1764	6617
1	1847	6618
1	1904	6619
1	1953	6580
1	1945	6581
1	1895	6582
1	1814	6583
1	1711	6584
1	1621	6585
1	1537	6586
1	1454	6587
1	1391	6588
1	1346	6589
1	1335	6590
1	1346	6591
1	1399	6592
1	1445	6593
1	1495	6594
1	1572	6595
1	1669	6596
1	1772	6597
1	1869	6598
1	1938	6599
1	1931	6620
1	1909	6621
1	1870	6622
1	1774	6623
1	1675	6624
1	1583	6625
1	1517	6626
1	1458	6627
1	1415	6628
1	1394	6629
1	1396	6630
1	1413	6631
1	1438	6632
1	1467	6633
1	1507	6634
1	1571	6635
1	1665	6636
1	1785	6637
1	1888	6638
1	1956	6639
1	1985	6640
1	1968	6641
1	1906	6642
1	1799	6643
1	1673	6644
1	1566	6645
1	1476	6646
1	1409	6647
1	1361	6648
1	1340	6649
1	1345	6650
1	1360	6651
1	1417	6652
1	1458	6653
1	1503	6654
1	1575	6655
1	1660	6656
1	1752	6657
1	1842	6658
1	1900	6659
1	1933	6660
1	1922	6661
1	1868	6662
1	1773	6663
1	1665	6664
1	1577	6665
1	1485	6666
1	1432	6667
1	1379	6668
1	1356	6669
1	1356	6670
1	1377	6671
1	1420	6672
1	1469	6673
1	1525	6674
1	1602	6675
1	1697	6676
1	1788	6677
1	1872	6678
1	1927	6679
1	1952	6680
1	1926	6681
1	1882	6682
1	1782	6683
1	1665	6684
1	1568	6685
1	1488	6686
1	1425	6687
1	1377	6688
1	1360	6689
1	1363	6690
1	1395	6691
1	1430	6692
1	1476	6693
1	1520	6694
1	1590	6695
1	1676	6696
1	1785	6697
1	1872	6698
1	1931	6699
1	1962	6700
1	1956	6701
1	1914	6702
1	1832	6703
1	1731	6704
1	1647	6705
1	1573	6706
1	1501	6707
1	1439	6708
1	1398	6709
1	1377	6710
1	1377	6711
1	1400	6712
1	1423	6713
1	1451	6714
1	1515	6715
1	1603	6716
1	1706	6717
1	1801	6718
1	1875	6719
1	1961	6740
1	1947	6741
1	1893	6742
1	1791	6743
1	1682	6744
1	1593	6745
1	1511	6746
1	1449	6747
1	1400	6748
1	1372	6749
1	1372	6750
1	1395	6751
1	1422	6752
1	1456	6753
1	1499	6754
1	1560	6755
1	1642	6756
1	1738	6757
1	1826	6758
1	1886	6759
1	1917	6760
1	1908	6761
1	1862	6762
1	1776	6763
1	1669	6764
1	1576	6765
1	1503	6766
1	1450	6767
1	1420	6768
1	1406	6769
1	1413	6770
1	1437	6771
1	1472	6772
1	1505	6773
1	1542	6774
1	1602	6775
1	1677	6776
1	1760	6777
1	1836	6778
1	1886	6779
1	1909	6720
1	1895	6721
1	1834	6722
1	1728	6723
1	1616	6724
1	1526	6725
1	1453	6726
1	1410	6727
1	1377	6728
1	1360	6729
1	1363	6730
1	1401	6731
1	1436	6732
1	1476	6733
1	1519	6734
1	1589	6735
1	1680	6736
1	1778	6737
1	1869	6738
1	1930	6739
1	1910	6780
1	1898	6781
1	1843	6782
1	1742	6783
1	1634	6784
1	1546	6785
1	1477	6786
1	1438	6787
1	1408	6788
1	1392	6789
1	1395	6790
1	1411	6791
1	1436	6792
1	1464	6793
1	1503	6794
1	1574	6795
1	1669	6796
1	1764	6797
1	1856	6798
1	1914	6799
1	1943	6800
1	1926	6801
1	1878	6802
1	1787	6803
1	1681	6804
1	1585	6805
1	1504	6806
1	1448	6807
1	1406	6808
1	1383	6809
1	1391	6810
1	1413	6811
1	1440	6812
1	1476	6813
1	1521	6814
1	1589	6815
1	1677	6816
1	1778	6817
1	1863	6818
1	1919	6819
1	1944	6820
1	1922	6821
1	1867	6822
1	1764	6823
1	1661	6824
1	1575	6825
1	1504	6826
1	1450	6827
1	1417	6828
1	1397	6829
1	1399	6830
1	1420	6831
1	1448	6832
1	1481	6833
1	1523	6834
1	1593	6835
1	1688	6836
1	1787	6837
1	1877	6838
1	1935	6839
1	1960	6840
1	1945	6841
1	1885	6842
1	1790	6843
1	1677	6844
1	1581	6845
1	1504	6846
1	1459	6847
1	1427	6848
1	1418	6849
1	1429	6850
1	1461	6851
1	1500	6852
1	1544	6853
1	1593	6854
1	1665	6855
1	1756	6856
1	1849	6857
1	1924	6858
1	1979	6859
1	1979	6880
1	1974	6881
1	1922	6882
1	1830	6883
1	1710	6884
1	1607	6885
1	1521	6886
1	1448	6887
1	1395	6888
1	1364	6889
1	1364	6890
1	1384	6891
1	1429	6892
1	1472	6893
1	1512	6894
1	1575	6895
1	1660	6896
1	1758	6897
1	1847	6898
1	1906	6899
1	2001	6860
1	1983	6861
1	1935	6862
1	1845	6863
1	1736	6864
1	1643	6865
1	1557	6866
1	1492	6867
1	1440	6868
1	1413	6869
1	1409	6870
1	1426	6871
1	1449	6872
1	1481	6873
1	1523	6874
1	1589	6875
1	1682	6876
1	1787	6877
1	1878	6878
1	1947	6879
1	1931	6900
1	1913	6901
1	1849	6902
1	1751	6903
1	1644	6904
1	1547	6905
1	1469	6906
1	1420	6907
1	1373	6908
1	1358	6909
1	1366	6910
1	1395	6911
1	1430	6912
1	1476	6913
1	1521	6914
1	1593	6915
1	1686	6916
1	1780	6917
1	1869	6918
1	1924	6919
1	1948	6920
1	1926	6921
1	1870	6922
1	1765	6923
1	1660	6924
1	1563	6925
1	1490	6926
1	1427	6927
1	1384	6928
1	1362	6929
1	1360	6930
1	1377	6931
1	1410	6932
1	1441	6933
1	1485	6934
1	1553	6935
1	1644	6936
1	1748	6937
1	1844	6938
1	1913	6939
1	1925	6960
1	1896	6961
1	1832	6962
1	1737	6963
1	1631	6964
1	1542	6965
1	1475	6966
1	1424	6967
1	1395	6968
1	1384	6969
1	1410	6970
1	1450	6971
1	1503	6972
1	1569	6973
1	1643	6974
1	1740	6975
1	1865	6976
1	1976	6977
1	2081	6978
1	2158	6979
1	1981	7000
1	1910	7001
1	1800	7002
1	1658	7003
1	1503	7004
1	1373	7005
1	1276	7006
1	1198	7007
1	1148	7008
1	1123	7009
1	1127	7010
1	1162	7011
1	1217	7012
1	1279	7013
1	1341	7014
1	1428	7015
1	1529	7016
1	1635	7017
1	1737	7018
1	1817	7019
1	2200	6980
1	2198	6981
1	2170	6982
1	2093	6983
1	1999	6984
1	1919	6985
1	1855	6986
1	1808	6987
1	1769	6988
1	1754	6989
1	1761	6990
1	1787	6991
1	1808	6992
1	1829	6993
1	1847	6994
1	1883	6995
1	1931	6996
1	1983	6997
1	2012	6998
1	2013	6999
1	1948	6940
1	1940	6941
1	1893	6942
1	1799	6943
1	1691	6944
1	1599	6945
1	1526	6946
1	1462	6947
1	1423	6948
1	1400	6949
1	1404	6950
1	1425	6951
1	1464	6952
1	1503	6953
1	1550	6954
1	1617	6955
1	1699	6956
1	1790	6957
1	1869	6958
1	1916	6959
1	1867	7020
1	1877	7021
1	1844	7022
1	1763	7023
1	1665	7024
1	1584	7025
1	1510	7026
1	1453	7027
1	1419	7028
1	1398	7029
1	1400	7030
1	1417	7031
1	1439	7032
1	1469	7033
1	1506	7034
1	1581	7035
1	1670	7036
1	1769	7037
1	1864	7038
1	1926	7039
1	1953	7040
1	1942	7041
1	1885	7042
1	1787	7043
1	1672	7044
1	1580	7045
1	1499	7046
1	1435	7047
1	1384	7048
1	1359	7049
1	1360	7050
1	1393	7051
1	1427	7052
1	1477	7053
1	1533	7054
1	1616	7055
1	1719	7056
1	1844	7057
1	1940	7058
1	2009	7059
1	2041	7060
1	2026	7061
1	1973	7062
1	1873	7063
1	1764	7064
1	1670	7065
1	1594	7066
1	1531	7067
1	1488	7068
1	1459	7069
1	1451	7070
1	1458	7071
1	1485	7072
1	1517	7073
1	1555	7074
1	1626	7075
1	1713	7076
1	1816	7077
1	1898	7078
1	1962	7079
1	2053	7100
1	2034	7101
1	1979	7102
1	1877	7103
1	1754	7104
1	1651	7105
1	1560	7106
1	1494	7107
1	1450	7108
1	1431	7109
1	1438	7110
1	1468	7111
1	1503	7112
1	1549	7113
1	1602	7114
1	1683	7115
1	1782	7116
1	1900	7117
1	1993	7118
1	2058	7119
1	2000	7080
1	1999	7081
1	1952	7082
1	1872	7083
1	1767	7084
1	1684	7085
1	1613	7086
1	1567	7087
1	1530	7088
1	1511	7089
1	1516	7090
1	1540	7091
1	1577	7092
1	1618	7093
1	1660	7094
1	1724	7095
1	1817	7096
1	1904	7097
1	1985	7098
1	2035	7099
1	2093	7120
1	2079	7121
1	2025	7122
1	1919	7123
1	1801	7124
1	1690	7125
1	1611	7126
1	1555	7127
1	1518	7128
1	1505	7129
1	1513	7130
1	1534	7131
1	1579	7132
1	1616	7133
1	1661	7134
1	1726	7135
1	1817	7136
1	1896	7137
1	1969	7138
1	2024	7139
1	2052	7140
1	2037	7141
1	1976	7142
1	1886	7143
1	1775	7144
1	1690	7145
1	1625	7146
1	1582	7147
1	1551	7148
1	1535	7149
1	1544	7150
1	1577	7151
1	1613	7152
1	1661	7153
1	1712	7154
1	1787	7155
1	1883	7156
1	1981	7157
1	2078	7158
1	2154	7159
1	2195	7160
1	2191	7161
1	2150	7162
1	2057	7163
1	1948	7164
1	1853	7165
1	1764	7166
1	1697	7167
1	1639	7168
1	1606	7169
1	1597	7170
1	1610	7171
1	1629	7172
1	1658	7173
1	1697	7174
1	1764	7175
1	1862	7176
1	1971	7177
1	2053	7178
1	2114	7179
1	2139	7180
1	2127	7181
1	2079	7182
1	1991	7183
1	1884	7184
1	1788	7185
1	1715	7186
1	1657	7187
1	1611	7188
1	1590	7189
1	1590	7190
1	1608	7191
1	1651	7192
1	1697	7193
1	1747	7194
1	1827	7195
1	1921	7196
1	2023	7197
1	2113	7198
1	2176	7199
1	2205	7200
1	2189	7201
1	2130	7202
1	2034	7203
1	1922	7204
1	1819	7205
1	1730	7206
1	1665	7207
1	1613	7208
1	1589	7209
1	1592	7210
1	1617	7211
1	1652	7212
1	1694	7213
1	1738	7214
1	1803	7215
1	1895	7216
1	1989	7217
1	2079	7218
1	2142	7219
1	2165	7220
1	2143	7221
1	2088	7222
1	1985	7223
1	1875	7224
1	1777	7225
1	1670	7226
1	1621	7227
1	1564	7228
1	1530	7229
1	1521	7230
1	1530	7231
1	1556	7232
1	1594	7233
1	1638	7234
1	1711	7235
1	1801	7236
1	1903	7237
1	1985	7238
1	2039	7239
1	2055	7240
1	2031	7241
1	1962	7242
1	1863	7243
1	1742	7244
1	1645	7245
1	1566	7246
1	1503	7247
1	1463	7248
1	1448	7249
1	1450	7250
1	1475	7251
1	1512	7252
1	1551	7253
1	1590	7254
1	1656	7255
1	1737	7256
1	1831	7257
1	1908	7258
1	1961	7259
1	1986	7260
1	1971	7261
1	1908	7262
1	1803	7263
1	1677	7264
1	1564	7265
1	1473	7266
1	1409	7267
1	1355	7268
1	1333	7269
1	1335	7270
1	1356	7271
1	1395	7272
1	1439	7273
1	1490	7274
1	1563	7275
1	1660	7276
1	1754	7277
1	1846	7278
1	1908	7279
1	1937	7280
1	1921	7281
1	1866	7282
1	1764	7283
1	1652	7284
1	1555	7285
1	1469	7286
1	1409	7287
1	1360	7288
1	1337	7289
1	1340	7290
1	1358	7291
1	1382	7292
1	1422	7293
1	1458	7294
1	1529	7295
1	1625	7296
1	1738	7297
1	1836	7298
1	1896	7299
1	1922	7300
1	1905	7301
1	1847	7302
1	1751	7303
1	1642	7304
1	1542	7305
1	1460	7306
1	1399	7307
1	1355	7308
1	1337	7309
1	1333	7310
1	1348	7311
1	1384	7312
1	1425	7313
1	1468	7314
1	1537	7315
1	1629	7316
1	1728	7317
1	1819	7318
1	1880	7319
1	1908	7320
1	1895	7321
1	1835	7322
1	1737	7323
1	1629	7324
1	1535	7325
1	1454	7326
1	1410	7327
1	1369	7328
1	1346	7329
1	1359	7330
1	1384	7331
1	1424	7332
1	1464	7333
1	1503	7334
1	1566	7335
1	1647	7336
1	1741	7337
1	1830	7338
1	1890	7339
1	1918	7340
1	1908	7341
1	1854	7342
1	1755	7343
1	1641	7344
1	1555	7345
1	1476	7346
1	1424	7347
1	1382	7348
1	1364	7349
1	1368	7350
1	1391	7351
1	1415	7352
1	1446	7353
1	1492	7354
1	1566	7355
1	1660	7356
1	1762	7357
1	1853	7358
1	1916	7359
1	1945	7360
1	1927	7361
1	1873	7362
1	1778	7363
1	1674	7364
1	1584	7365
1	1517	7366
1	1456	7367
1	1420	7368
1	1399	7369
1	1398	7370
1	1411	7371
1	1440	7372
1	1468	7373
1	1503	7374
1	1572	7375
1	1660	7376
1	1759	7377
1	1853	7378
1	1910	7379
1	1935	7380
1	1909	7381
1	1848	7382
1	1751	7383
1	1642	7384
1	1554	7385
1	1481	7386
1	1431	7387
1	1384	7388
1	1369	7389
1	1373	7390
1	1400	7391
1	1434	7392
1	1472	7393
1	1517	7394
1	1588	7395
1	1682	7396
1	1779	7397
1	1869	7398
1	1926	7399
1	1953	7400
1	1935	7401
1	1881	7402
1	1779	7403
1	1664	7404
1	1567	7405
1	1487	7406
1	1424	7407
1	1372	7408
1	1348	7409
1	1350	7410
1	1380	7411
1	1420	7412
1	1467	7413
1	1515	7414
1	1586	7415
1	1677	7416
1	1776	7417
1	1859	7418
1	1916	7419
1	1925	7440
1	1901	7441
1	1832	7442
1	1730	7443
1	1615	7444
1	1513	7445
1	1436	7446
1	1375	7447
1	1337	7448
1	1327	7449
1	1341	7450
1	1372	7451
1	1422	7452
1	1467	7453
1	1518	7454
1	1591	7455
1	1684	7456
1	1770	7457
1	1858	7458
1	1917	7459
1	1934	7420
1	1911	7421
1	1854	7422
1	1747	7423
1	1629	7424
1	1517	7425
1	1440	7426
1	1381	7427
1	1347	7428
1	1345	7429
1	1357	7430
1	1384	7431
1	1427	7432
1	1467	7433
1	1512	7434
1	1580	7435
1	1670	7436
1	1764	7437
1	1848	7438
1	1904	7439
1	1940	7460
1	1921	7461
1	1869	7462
1	1772	7463
1	1663	7464
1	1574	7465
1	1495	7466
1	1437	7467
1	1394	7468
1	1369	7469
1	1371	7470
1	1396	7471
1	1424	7472
1	1465	7473
1	1508	7474
1	1580	7475
1	1669	7476
1	1775	7477
1	1869	7478
1	1932	7479
1	1961	7480
1	1945	7481
1	1886	7482
1	1787	7483
1	1675	7484
1	1580	7485
1	1503	7486
1	1448	7487
1	1409	7488
1	1381	7489
1	1377	7490
1	1398	7491
1	1427	7492
1	1454	7493
1	1487	7494
1	1546	7495
1	1632	7496
1	1724	7497
1	1814	7498
1	1877	7499
1	1921	7500
1	1917	7501
1	1864	7502
1	1764	7503
1	1651	7504
1	1555	7505
1	1476	7506
1	1424	7507
1	1384	7508
1	1364	7509
1	1363	7510
1	1381	7511
1	1415	7512
1	1450	7513
1	1490	7514
1	1555	7515
1	1643	7516
1	1733	7517
1	1818	7518
1	1883	7519
1	1914	7520
1	1911	7521
1	1880	7522
1	1796	7523
1	1710	7524
1	1634	7525
1	1567	7526
1	1516	7527
1	1476	7528
1	1447	7529
1	1437	7530
1	1445	7531
1	1454	7532
1	1474	7533
1	1500	7534
1	1557	7535
1	1649	7536
1	1755	7537
1	1856	7538
1	1931	7539
1	1974	7540
1	1978	7541
1	1943	7542
1	1855	7543
1	1742	7544
1	1654	7545
1	1581	7546
1	1525	7547
1	1479	7548
1	1454	7549
1	1450	7550
1	1467	7551
1	1495	7552
1	1525	7553
1	1555	7554
1	1611	7555
1	1693	7556
1	1792	7557
1	1892	7558
1	1959	7559
1	1988	7560
1	1973	7561
1	1910	7562
1	1817	7563
1	1707	7564
1	1610	7565
1	1529	7566
1	1464	7567
1	1409	7568
1	1372	7569
1	1364	7570
1	1382	7571
1	1419	7572
1	1461	7573
1	1508	7574
1	1581	7575
1	1676	7576
1	1773	7577
1	1868	7578
1	1932	7579
1	1932	7600
1	1920	7601
1	1870	7602
1	1782	7603
1	1683	7604
1	1590	7605
1	1513	7606
1	1448	7607
1	1403	7608
1	1374	7609
1	1372	7610
1	1384	7611
1	1413	7612
1	1438	7613
1	1472	7614
1	1529	7615
1	1607	7616
1	1703	7617
1	1791	7618
1	1865	7619
1	1953	7580
1	1924	7581
1	1885	7582
1	1788	7583
1	1677	7584
1	1580	7585
1	1499	7586
1	1437	7587
1	1392	7588
1	1359	7589
1	1359	7590
1	1376	7591
1	1411	7592
1	1455	7593
1	1503	7594
1	1576	7595
1	1662	7596
1	1764	7597
1	1855	7598
1	1908	7599
1	1902	7620
1	1898	7621
1	1847	7622
1	1752	7623
1	1657	7624
1	1561	7625
1	1476	7626
1	1426	7627
1	1377	7628
1	1350	7629
1	1364	7630
1	1397	7631
1	1441	7632
1	1494	7633
1	1552	7634
1	1632	7635
1	1724	7636
1	1817	7637
1	1893	7638
1	1935	7639
1	1948	7640
1	1922	7641
1	1855	7642
1	1747	7643
1	1634	7644
1	1539	7645
1	1463	7646
1	1413	7647
1	1377	7648
1	1372	7649
1	1393	7650
1	1424	7651
1	1450	7652
1	1478	7653
1	1505	7654
1	1557	7655
1	1634	7656
1	1725	7657
1	1802	7658
1	1867	7659
1	1899	7660
1	1891	7661
1	1843	7662
1	1748	7663
1	1647	7664
1	1569	7665
1	1521	7666
1	1490	7667
1	1484	7668
1	1499	7669
1	1538	7670
1	1598	7671
1	1671	7672
1	1738	7673
1	1802	7674
1	1893	7675
1	1994	7676
1	2106	7677
1	2215	7678
1	2296	7679
1	2328	7680
1	2310	7681
1	2237	7682
1	2127	7683
1	2001	7684
1	1895	7685
1	1796	7686
1	1728	7687
1	1664	7688
1	1616	7689
1	1581	7690
1	1557	7691
1	1541	7692
1	1529	7693
1	1515	7694
1	1526	7695
1	1555	7696
1	1585	7697
1	1622	7698
1	1646	7699
1	1654	7700
1	1632	7701
1	1585	7702
1	1503	7703
1	1409	7704
1	1321	7705
1	1255	7706
1	1209	7707
1	1187	7708
1	1188	7709
1	1218	7710
1	1265	7711
1	1314	7712
1	1372	7713
1	1437	7714
1	1521	7715
1	1626	7716
1	1751	7717
1	1857	7718
1	1928	7719
1	1958	7720
1	1939	7721
1	1869	7722
1	1747	7723
1	1626	7724
1	1518	7725
1	1435	7726
1	1372	7727
1	1332	7728
1	1315	7729
1	1320	7730
1	1355	7731
1	1407	7732
1	1458	7733
1	1521	7734
1	1595	7735
1	1705	7736
1	1815	7737
1	1904	7738
1	1963	7739
1	1992	7740
1	1976	7741
1	1919	7742
1	1827	7743
1	1712	7744
1	1612	7745
1	1528	7746
1	1461	7747
1	1410	7748
1	1384	7749
1	1395	7750
1	1420	7751
1	1455	7752
1	1502	7753
1	1553	7754
1	1630	7755
1	1733	7756
1	1834	7757
1	1922	7758
1	1991	7759
1	2025	7760
1	2014	7761
1	1971	7762
1	1881	7763
1	1767	7764
1	1669	7765
1	1582	7766
1	1511	7767
1	1453	7768
1	1424	7769
1	1422	7770
1	1446	7771
1	1476	7772
1	1529	7773
1	1581	7774
1	1658	7775
1	1750	7776
1	1855	7777
1	1939	7778
1	2000	7779
1	2030	7780
1	2025	7781
1	1981	7782
1	1896	7783
1	1791	7784
1	1697	7785
1	1621	7786
1	1562	7787
1	1514	7788
1	1478	7789
1	1468	7790
1	1476	7791
1	1499	7792
1	1529	7793
1	1566	7794
1	1632	7795
1	1718	7796
1	1818	7797
1	1903	7798
1	1962	7799
1	1991	7800
1	1982	7801
1	1932	7802
1	1843	7803
1	1738	7804
1	1656	7805
1	1585	7806
1	1537	7807
1	1497	7808
1	1475	7809
1	1472	7810
1	1490	7811
1	1521	7812
1	1557	7813
1	1605	7814
1	1679	7815
1	1779	7816
1	1882	7817
1	1974	7818
1	2039	7819
1	2071	7820
1	2057	7821
1	2012	7822
1	1912	7823
1	1800	7824
1	1710	7825
1	1631	7826
1	1569	7827
1	1528	7828
1	1505	7829
1	1507	7830
1	1529	7831
1	1556	7832
1	1590	7833
1	1632	7834
1	1701	7835
1	1795	7836
1	1900	7837
1	1987	7838
1	2061	7839
1	2087	7840
1	2079	7841
1	2025	7842
1	1933	7843
1	1822	7844
1	1725	7845
1	1652	7846
1	1598	7847
1	1566	7848
1	1555	7849
1	1563	7850
1	1587	7851
1	1628	7852
1	1667	7853
1	1708	7854
1	1766	7855
1	1852	7856
1	1948	7857
1	2039	7858
1	2105	7859
1	2138	7860
1	2127	7861
1	2067	7862
1	1977	7863
1	1870	7864
1	1779	7865
1	1709	7866
1	1659	7867
1	1618	7868
1	1598	7869
1	1600	7870
1	1625	7871
1	1658	7872
1	1700	7873
1	1751	7874
1	1827	7875
1	1917	7876
1	2006	7877
1	2091	7878
1	2157	7879
1	2189	7880
1	2174	7881
1	2120	7882
1	2016	7883
1	1896	7884
1	1787	7885
1	1707	7886
1	1646	7887
1	1603	7888
1	1582	7889
1	1584	7890
1	1611	7891
1	1647	7892
1	1693	7893
1	1742	7894
1	1819	7895
1	1913	7896
1	2021	7897
1	2105	7898
1	2160	7899
1	2183	7900
1	2166	7901
1	2116	7902
1	2027	7903
1	1924	7904
1	1831	7905
1	1744	7906
1	1674	7907
1	1622	7908
1	1590	7909
1	1579	7910
1	1585	7911
1	1616	7912
1	1654	7913
1	1700	7914
1	1777	7915
1	1875	7916
1	1975	7917
1	2061	7918
1	2116	7919
1	2140	7920
1	2120	7921
1	2061	7922
1	1965	7923
1	1856	7924
1	1755	7925
1	1670	7926
1	1600	7927
1	1549	7928
1	1518	7929
1	1516	7930
1	1534	7931
1	1567	7932
1	1607	7933
1	1652	7934
1	1724	7935
1	1818	7936
1	1914	7937
1	1997	7938
1	2043	7939
1	2053	7940
1	2022	7941
1	1948	7942
1	1845	7943
1	1713	7944
1	1607	7945
1	1521	7946
1	1453	7947
1	1400	7948
1	1363	7949
1	1353	7950
1	1364	7951
1	1384	7952
1	1425	7953
1	1469	7954
1	1535	7955
1	1620	7956
1	1723	7957
1	1811	7958
1	1869	7959
1	1895	7960
1	1879	7961
1	1831	7962
1	1744	7963
1	1646	7964
1	1557	7965
1	1482	7966
1	1425	7967
1	1393	7968
1	1372	7969
1	1376	7970
1	1398	7971
1	1425	7972
1	1450	7973
1	1479	7974
1	1537	7975
1	1619	7976
1	1708	7977
1	1789	7978
1	1845	7979
1	1872	7980
1	1857	7981
1	1796	7982
1	1707	7983
1	1602	7984
1	1517	7985
1	1448	7986
1	1398	7987
1	1357	7988
1	1338	7989
1	1346	7990
1	1369	7991
1	1409	7992
1	1454	7993
1	1504	7994
1	1579	7995
1	1667	7996
1	1754	7997
1	1837	7998
1	1895	7999
1	1914	8000
1	1895	8000
1	1838	8002
1	1737	8003
1	1625	8004
1	1530	8005
1	1459	8006
1	1409	8007
1	1371	8008
1	1353	8009
1	1351	8010
1	1372	8011
1	1399	8012
1	1428	8013
1	1467	8013
1	1532	8015
1	1626	8016
1	1730	8016
1	1819	8018
1	1875	8019
1	1895	8020
1	1869	8021
1	1811	8022
1	1710	8023
1	1603	8024
1	1503	8025
1	1425	8026
1	1361	8027
1	1323	8028
1	1310	8029
1	1319	8029
1	1348	8031
1	1395	8032
1	1439	8032
1	1490	8034
1	1555	8035
1	1661	8036
1	1775	8037
1	1877	8038
1	1946	8039
1	1973	8040
1	1955	8041
1	1887	8042
1	1780	8043
1	1660	8044
1	1554	8045
1	1462	8045
1	1395	8047
1	1337	8048
1	1307	8048
1	1307	8050
1	1328	8051
1	1357	8052
1	1395	8053
1	1436	8054
1	1512	8055
1	1607	8056
1	1711	8057
1	1807	8058
1	1873	8059
1	1913	8060
1	1909	8061
1	1871	8061
1	1788	8063
1	1681	8064
1	1583	8064
1	1503	8066
1	1443	8067
1	1398	8068
1	1369	8069
1	1369	8070
1	1398	8071
1	1429	8072
1	1477	8073
1	1530	8074
1	1606	8074
1	1699	8076
1	1801	8077
1	1886	8077
1	1935	8079
1	1947	8080
1	1916	8080
1	1853	8082
1	1739	8083
1	1620	8084
1	1518	8085
1	1438	8086
1	1374	8087
1	1334	8088
1	1319	8089
1	1328	8090
1	1357	8090
1	1402	8092
1	1441	8093
1	1477	8093
1	1542	8095
1	1634	8096
1	1744	8096
1	1850	8098
1	1922	8099
1	1961	8100
1	1949	8101
1	1888	8102
1	1785	8103
1	1662	8104
1	1555	8105
1	1463	8106
1	1384	8106
1	1328	8108
1	1298	8109
1	1302	8109
1	1325	8111
1	1364	8112
1	1416	8113
1	1469	8114
1	1546	8115
1	1644	8116
1	1747	8117
1	1846	8118
1	1912	8119
1	1940	8120
1	1922	8121
1	1869	8122
1	1767	8122
1	1658	8124
1	1555	8125
1	1478	8125
1	1412	8127
1	1353	8128
1	1323	8129
1	1318	8130
1	1329	8131
1	1355	8132
1	1398	8133
1	1442	8134
1	1515	8135
1	1613	8136
1	1727	8137
1	1835	8138
1	1909	8138
1	1909	8160
1	1907	8161
1	1856	8162
1	1765	8163
1	1659	8164
1	1560	8165
1	1478	8166
1	1422	8167
1	1369	8168
1	1341	8169
1	1333	8170
1	1346	8170
1	1373	8172
1	1417	8173
1	1463	8173
1	1538	8175
1	1631	8176
1	1723	8177
1	1811	8178
1	1871	8179
1	1949	8140
1	1955	8141
1	1913	8141
1	1829	8143
1	1711	8144
1	1598	8145
1	1503	8146
1	1424	8147
1	1366	8148
1	1334	8149
1	1328	8150
1	1340	8151
1	1369	8152
1	1398	8153
1	1429	8154
1	1487	8154
1	1572	8156
1	1680	8157
1	1782	8157
1	1867	8159
1	1908	8180
1	1903	8181
1	1860	8182
1	1764	8183
1	1652	8184
1	1556	8185
1	1477	8186
1	1418	8186
1	1373	8188
1	1356	8189
1	1363	8189
1	1396	8191
1	1430	8192
1	1476	8193
1	1524	8194
1	1597	8195
1	1688	8196
1	1793	8197
1	1882	8198
1	1944	8199
1	1974	8200
1	1968	8201
1	1922	8202
1	1842	8203
1	1727	8204
1	1632	8205
1	1547	8206
1	1480	8207
1	1432	8208
1	1400	8209
1	1396	8210
1	1410	8211
1	1443	8212
1	1479	8213
1	1520	8214
1	1587	8215
1	1674	8216
1	1772	8217
1	1859	8218
1	1921	8219
1	1948	8220
1	1937	8221
1	1882	8222
1	1791	8223
1	1683	8224
1	1589	8225
1	1508	8226
1	1449	8227
1	1382	8228
1	1359	8229
1	1356	8230
1	1366	8231
1	1400	8232
1	1441	8233
1	1476	8234
1	1553	8235
1	1638	8236
1	1737	8237
1	1824	8238
1	1881	8239
1	1908	8240
1	1890	8241
1	1837	8242
1	1740	8243
1	1634	8244
1	1544	8245
1	1461	8246
1	1399	8247
1	1346	8248
1	1325	8249
1	1323	8250
1	1345	8251
1	1369	8252
1	1400	8253
1	1447	8254
1	1524	8255
1	1616	8256
1	1731	8257
1	1827	8258
1	1895	8259
1	1922	8260
1	1908	8261
1	1849	8262
1	1750	8263
1	1634	8264
1	1538	8265
1	1459	8266
1	1398	8267
1	1357	8268
1	1345	8269
1	1351	8270
1	1379	8271
1	1427	8272
1	1472	8273
1	1513	8274
1	1577	8275
1	1659	8276
1	1750	8277
1	1833	8278
1	1884	8279
1	1908	8280
1	1893	8281
1	1839	8282
1	1747	8283
1	1646	8284
1	1557	8285
1	1482	8286
1	1429	8287
1	1381	8288
1	1356	8289
1	1356	8290
1	1379	8291
1	1418	8292
1	1453	8293
1	1494	8294
1	1562	8295
1	1652	8296
1	1748	8297
1	1835	8298
1	1894	8299
1	1921	8300
1	1904	8301
1	1857	8302
1	1758	8303
1	1643	8304
1	1539	8305
1	1451	8306
1	1392	8307
1	1346	8308
1	1328	8309
1	1327	8310
1	1346	8311
1	1376	8312
1	1423	8313
1	1467	8314
1	1542	8315
1	1636	8316
1	1741	8317
1	1828	8318
1	1886	8319
1	1909	8320
1	1896	8321
1	1854	8322
1	1764	8323
1	1669	8324
1	1581	8325
1	1517	8326
1	1476	8327
1	1461	8328
1	1474	8329
1	1508	8330
1	1567	8331
1	1638	8332
1	1711	8333
1	1790	8334
1	1883	8335
1	2003	8336
1	2121	8337
1	2235	8338
1	2313	8339
1	2354	8340
1	2349	8341
1	2288	8342
1	2191	8343
1	2074	8344
1	1962	8345
1	1867	8346
1	1778	8347
1	1698	8348
1	1628	8349
1	1566	8350
1	1517	8351
1	1475	8352
1	1440	8353
1	1422	8354
1	1435	8355
1	1476	8356
1	1536	8357
1	1600	8358
1	1644	8359
1	1890	8380
1	1873	8381
1	1819	8382
1	1724	8383
1	1614	8384
1	1528	8385
1	1456	8386
1	1400	8387
1	1358	8388
1	1337	8389
1	1335	8390
1	1356	8391
1	1396	8392
1	1440	8393
1	1490	8394
1	1571	8395
1	1670	8396
1	1778	8397
1	1870	8398
1	1930	8399
1	1958	8400
1	1943	8401
1	1883	8402
1	1788	8403
1	1680	8404
1	1586	8405
1	1515	8406
1	1469	8407
1	1433	8408
1	1413	8409
1	1416	8410
1	1440	8411
1	1476	8412
1	1515	8413
1	1557	8414
1	1632	8415
1	1716	8416
1	1803	8417
1	1881	8418
1	1932	8419
1	1665	8360
1	1659	8361
1	1621	8362
1	1543	8363
1	1445	8364
1	1359	8365
1	1295	8366
1	1256	8367
1	1230	8368
1	1227	8369
1	1242	8370
1	1274	8371
1	1312	8372
1	1356	8373
1	1411	8374
1	1487	8375
1	1587	8376
1	1698	8377
1	1791	8378
1	1858	8379
1	1957	8420
1	1948	8421
1	1904	8422
1	1809	8423
1	1699	8424
1	1607	8425
1	1528	8426
1	1464	8427
1	1424	8428
1	1413	8429
1	1424	8430
1	1456	8431
1	1502	8432
1	1548	8433
1	1598	8434
1	1673	8435
1	1767	8436
1	1877	8437
1	1964	8438
1	2026	8439
1	2052	8440
1	2038	8441
1	1976	8442
1	1875	8443
1	1752	8444
1	1647	8445
1	1562	8446
1	1490	8447
1	1441	8448
1	1415	8449
1	1411	8450
1	1426	8451
1	1458	8452
1	1492	8453
1	1535	8454
1	1603	8455
1	1692	8456
1	1796	8457
1	1898	8458
1	1971	8459
1	2013	8460
1	2013	8461
1	1967	8462
1	1890	8463
1	1787	8464
1	1697	8465
1	1621	8466
1	1566	8467
1	1517	8468
1	1494	8469
1	1494	8470
1	1513	8471
1	1544	8472
1	1580	8473
1	1620	8474
1	1683	8475
1	1763	8476
1	1849	8477
1	1923	8478
1	1983	8479
1	2009	8480
1	1998	8481
1	1953	8482
1	1865	8483
1	1752	8484
1	1665	8485
1	1593	8486
1	1544	8487
1	1507	8488
1	1490	8489
1	1490	8490
1	1511	8491
1	1533	8492
1	1571	8493
1	1618	8494
1	1692	8495
1	1791	8496
1	1911	8497
1	2011	8498
1	2086	8499
1	2130	8500
1	2131	8501
1	2090	8502
1	2003	8503
1	1893	8504
1	1784	8505
1	1692	8506
1	1620	8507
1	1562	8508
1	1528	8509
1	1510	8510
1	1517	8511
1	1542	8512
1	1573	8513
1	1613	8514
1	1681	8515
1	1768	8516
1	1873	8517
1	1971	8518
1	2043	8519
1	2084	8520
1	2083	8521
1	2041	8522
1	1961	8523
1	1866	8524
1	1775	8525
1	1701	8526
1	1647	8527
1	1615	8528
1	1593	8529
1	1592	8530
1	1610	8531
1	1644	8532
1	1681	8533
1	1716	8534
1	1785	8535
1	1869	8536
1	1962	8537
1	2050	8538
1	2108	8539
1	2186	8560
1	2176	8561
1	2120	8562
1	2022	8563
1	1898	8564
1	1786	8565
1	1691	8566
1	1615	8567
1	1563	8568
1	1539	8569
1	1539	8570
1	1562	8571
1	1605	8572
1	1651	8573
1	1699	8574
1	1772	8575
1	1864	8576
1	1956	8577
1	2030	8578
1	2085	8579
1	2140	8540
1	2129	8541
1	2079	8542
1	1998	8543
1	1895	8544
1	1822	8545
1	1751	8546
1	1700	8547
1	1660	8548
1	1643	8549
1	1647	8550
1	1670	8551
1	1696	8552
1	1727	8553
1	1757	8554
1	1818	8555
1	1896	8556
1	1991	8557
1	2079	8558
1	2153	8559
1	1984	8600
1	1963	8601
1	1908	8602
1	1814	8603
1	1692	8604
1	1594	8605
1	1515	8606
1	1456	8607
1	1425	8608
1	1409	8609
1	1411	8610
1	1430	8611
1	1454	8612
1	1490	8613
1	1529	8614
1	1589	8615
1	1680	8616
1	1783	8617
1	1873	8618
1	1931	8619
1	2106	8580
1	2082	8581
1	2015	8582
1	1917	8583
1	1791	8584
1	1690	8585
1	1605	8586
1	1542	8587
1	1491	8588
1	1462	8589
1	1451	8590
1	1459	8591
1	1482	8592
1	1520	8593
1	1561	8594
1	1634	8595
1	1726	8596
1	1823	8597
1	1904	8598
1	1961	8599
1	1948	8620
1	1918	8621
1	1855	8622
1	1747	8623
1	1633	8624
1	1528	8625
1	1437	8626
1	1359	8627
1	1309	8628
1	1279	8629
1	1276	8630
1	1294	8631
1	1332	8632
1	1377	8633
1	1433	8634
1	1503	8635
1	1605	8636
1	1708	8637
1	1799	8638
1	1869	8639
1	1904	8640
1	1895	8641
1	1836	8642
1	1738	8643
1	1629	8644
1	1533	8645
1	1455	8646
1	1398	8647
1	1348	8648
1	1328	8649
1	1325	8650
1	1346	8651
1	1373	8652
1	1415	8653
1	1450	8654
1	1512	8655
1	1598	8656
1	1694	8657
1	1785	8658
1	1854	8659
1	1883	8660
1	1877	8661
1	1839	8662
1	1746	8663
1	1634	8664
1	1532	8665
1	1443	8666
1	1369	8667
1	1310	8668
1	1273	8669
1	1267	8670
1	1287	8671
1	1319	8672
1	1361	8673
1	1414	8674
1	1487	8675
1	1581	8676
1	1695	8677
1	1793	8678
1	1871	8679
1	1917	8680
1	1922	8681
1	1890	8682
1	1811	8683
1	1700	8684
1	1606	8685
1	1525	8686
1	1453	8687
1	1404	8688
1	1370	8689
1	1359	8690
1	1371	8691
1	1398	8692
1	1425	8693
1	1456	8694
1	1515	8695
1	1598	8696
1	1690	8697
1	1777	8698
1	1843	8699
1	1869	8700
1	1852	8701
1	1787	8702
1	1691	8703
1	1584	8704
1	1502	8705
1	1439	8706
1	1399	8707
1	1370	8708
1	1359	8709
1	1370	8710
1	1399	8711
1	1431	8712
1	1471	8713
1	1513	8714
1	1584	8715
1	1677	8716
1	1779	8717
1	1873	8718
1	1944	8719
1	1974	8720
1	1955	8721
1	1895	8722
1	1782	8723
1	1661	8724
1	1560	8725
1	1480	8726
1	1422	8727
1	1373	8728
1	1351	8729
1	1351	8730
1	1372	8731
1	1409	8732
1	1445	8733
1	1485	8734
1	1555	8735
1	1640	8736
1	1732	8737
1	1814	8738
1	1865	8739
1	1940	8780
1	1935	8781
1	1896	8782
1	1814	8783
1	1701	8784
1	1607	8785
1	1526	8786
1	1456	8787
1	1406	8788
1	1372	8789
1	1358	8790
1	1364	8791
1	1382	8792
1	1415	8793
1	1454	8794
1	1527	8795
1	1630	8796
1	1751	8797
1	1859	8798
1	1933	8799
1	1967	8800
1	1946	8801
1	1886	8802
1	1786	8803
1	1667	8804
1	1567	8805
1	1480	8806
1	1412	8807
1	1353	8808
1	1323	8809
1	1319	8810
1	1337	8811
1	1374	8812
1	1417	8813
1	1458	8814
1	1529	8815
1	1619	8816
1	1719	8817
1	1815	8818
1	1878	8819
1	1885	8740
1	1870	8741
1	1818	8742
1	1729	8743
1	1625	8744
1	1535	8745
1	1464	8746
1	1406	8747
1	1366	8748
1	1347	8749
1	1353	8750
1	1377	8751
1	1418	8752
1	1454	8753
1	1495	8754
1	1560	8755
1	1647	8756
1	1744	8757
1	1834	8758
1	1891	8759
1	1913	8760
1	1895	8761
1	1833	8762
1	1737	8763
1	1625	8764
1	1529	8765
1	1454	8766
1	1402	8767
1	1355	8768
1	1331	8769
1	1325	8770
1	1344	8771
1	1373	8772
1	1423	8773
1	1472	8774
1	1542	8775
1	1635	8776
1	1734	8777
1	1832	8778
1	1899	8779
1	1934	8840
1	1922	8841
1	1868	8842
1	1773	8843
1	1661	8844
1	1573	8845
1	1489	8846
1	1427	8847
1	1375	8848
1	1346	8849
1	1346	8850
1	1369	8851
1	1407	8852
1	1453	8853
1	1505	8854
1	1581	8855
1	1679	8856
1	1790	8857
1	1882	8858
1	1948	8859
1	1908	8820
1	1894	8821
1	1834	8822
1	1738	8823
1	1624	8824
1	1530	8825
1	1451	8826
1	1384	8827
1	1346	8828
1	1327	8829
1	1328	8830
1	1347	8831
1	1382	8832
1	1428	8833
1	1476	8834
1	1548	8835
1	1643	8836
1	1746	8837
1	1841	8838
1	1904	8839
1	1976	8860
1	1960	8861
1	1904	8862
1	1811	8863
1	1694	8864
1	1602	8865
1	1529	8866
1	1467	8867
1	1424	8868
1	1395	8869
1	1391	8870
1	1412	8871
1	1450	8872
1	1490	8873
1	1536	8874
1	1607	8875
1	1698	8876
1	1803	8877
1	1895	8878
1	1949	8879
1	1974	8880
1	1958	8881
1	1897	8882
1	1796	8883
1	1677	8884
1	1574	8885
1	1485	8886
1	1419	8887
1	1360	8888
1	1331	8889
1	1325	8890
1	1341	8891
1	1373	8892
1	1422	8893
1	1472	8894
1	1546	8895
1	1639	8896
1	1741	8897
1	1836	8898
1	1895	8899
1	1919	8900
1	1904	8901
1	1854	8902
1	1760	8903
1	1655	8904
1	1567	8905
1	1502	8906
1	1448	8907
1	1409	8908
1	1383	8909
1	1378	8910
1	1399	8911
1	1423	8912
1	1459	8913
1	1503	8914
1	1571	8915
1	1656	8916
1	1747	8917
1	1826	8918
1	1877	8919
1	1904	8920
1	1895	8921
1	1847	8922
1	1755	8923
1	1659	8924
1	1567	8925
1	1488	8926
1	1423	8927
1	1368	8928
1	1337	8929
1	1333	8930
1	1355	8931
1	1398	8932
1	1438	8933
1	1490	8934
1	1566	8935
1	1660	8936
1	1764	8937
1	1857	8938
1	1919	8939
1	1945	8940
1	1926	8941
1	1865	8942
1	1757	8943
1	1638	8944
1	1531	8945
1	1442	8946
1	1372	8947
1	1327	8948
1	1305	8949
1	1305	8950
1	1332	8951
1	1374	8952
1	1433	8953
1	1495	8954
1	1579	8955
1	1680	8956
1	1778	8957
1	1868	8958
1	1923	8959
1	1948	8960
1	1922	8961
1	1857	8962
1	1744	8963
1	1622	8964
1	1512	8965
1	1425	8966
1	1355	8967
1	1310	8968
1	1292	8969
1	1301	8970
1	1332	8971
1	1368	8972
1	1411	8973
1	1450	8974
1	1513	8975
1	1602	8976
1	1701	8977
1	1788	8978
1	1856	8979
1	2366	9000
1	2363	9001
1	2300	9002
1	2194	9003
1	2075	9004
1	1967	9005
1	1871	9006
1	1791	9007
1	1721	9008
1	1662	9009
1	1620	9010
1	1592	9011
1	1577	9012
1	1560	9013
1	1544	9014
1	1550	9015
1	1575	9016
1	1608	9017
1	1648	9018
1	1670	9019
1	1890	8980
1	1884	8981
1	1843	8982
1	1764	8983
1	1675	8984
1	1607	8985
1	1554	8986
1	1513	8987
1	1490	8988
1	1490	8989
1	1512	8990
1	1556	8991
1	1620	8992
1	1690	8993
1	1762	8994
1	1862	8995
1	1980	8996
1	2107	8997
1	2220	8998
1	2314	8999
1	1674	9020
1	1647	9021
1	1598	9022
1	1508	9023
1	1408	9024
1	1322	9025
1	1267	9026
1	1225	9027
1	1199	9028
1	1190	9029
1	1204	9030
1	1238	9031
1	1287	9032
1	1344	9033
1	1408	9034
1	1488	9035
1	1587	9036
1	1696	9037
1	1788	9038
1	1857	9039
1	1887	9040
1	1880	9041
1	1831	9042
1	1738	9043
1	1634	9044
1	1545	9045
1	1476	9046
1	1424	9047
1	1393	9048
1	1372	9049
1	1373	9050
1	1393	9051
1	1423	9052
1	1450	9053
1	1492	9054
1	1564	9055
1	1665	9056
1	1774	9057
1	1871	9058
1	1945	9059
1	1995	9080
1	1977	9081
1	1934	9082
1	1844	9083
1	1733	9084
1	1638	9085
1	1555	9086
1	1494	9087
1	1449	9088
1	1424	9089
1	1419	9090
1	1437	9091
1	1467	9092
1	1505	9093
1	1551	9094
1	1622	9095
1	1715	9096
1	1827	9097
1	1913	9098
1	1974	9099
1	1978	9060
1	1974	9061
1	1921	9062
1	1827	9063
1	1710	9064
1	1606	9065
1	1524	9066
1	1465	9067
1	1424	9068
1	1402	9069
1	1399	9070
1	1420	9071
1	1446	9072
1	1484	9073
1	1530	9074
1	1609	9075
1	1710	9076
1	1811	9077
1	1898	9078
1	1961	9079
1	2002	9100
1	1990	9101
1	1942	9102
1	1852	9103
1	1738	9104
1	1647	9105
1	1569	9106
1	1503	9107
1	1454	9108
1	1430	9109
1	1431	9110
1	1458	9111
1	1499	9112
1	1535	9113
1	1580	9114
1	1647	9115
1	1740	9116
1	1852	9117
1	1948	9118
1	2014	9119
1	2050	9120
1	2041	9121
1	1985	9122
1	1890	9123
1	1769	9124
1	1669	9125
1	1581	9126
1	1521	9127
1	1468	9128
1	1436	9129
1	1434	9130
1	1445	9131
1	1469	9132
1	1503	9133
1	1549	9134
1	1623	9135
1	1723	9136
1	1832	9137
1	1923	9138
1	1996	9139
1	2031	9140
1	2026	9141
1	1975	9142
1	1891	9143
1	1782	9144
1	1687	9145
1	1607	9146
1	1540	9147
1	1490	9148
1	1459	9149
1	1451	9150
1	1475	9151
1	1508	9152
1	1557	9153
1	1610	9154
1	1687	9155
1	1788	9156
1	1895	9157
1	1980	9158
1	2043	9159
1	2078	9160
1	2070	9161
1	2027	9162
1	1948	9163
1	1841	9164
1	1738	9165
1	1658	9166
1	1589	9167
1	1541	9168
1	1517	9169
1	1520	9170
1	1539	9171
1	1575	9172
1	1615	9173
1	1660	9174
1	1730	9175
1	1819	9176
1	1922	9177
1	2016	9178
1	2084	9179
1	2123	9180
1	2118	9181
1	2058	9182
1	1968	9183
1	1859	9184
1	1759	9185
1	1682	9186
1	1621	9187
1	1576	9188
1	1550	9189
1	1543	9190
1	1557	9191
1	1592	9192
1	1634	9193
1	1686	9194
1	1764	9195
1	1868	9196
1	1963	9197
1	2052	9198
1	2117	9199
1	2145	9200
1	2127	9201
1	2073	9202
1	1978	9203
1	1867	9204
1	1764	9205
1	1687	9206
1	1629	9207
1	1584	9208
1	1562	9209
1	1561	9210
1	1581	9211
1	1607	9212
1	1636	9213
1	1683	9214
1	1755	9215
1	1857	9216
1	1973	9217
1	2061	9218
1	2126	9219
1	2054	9240
1	2040	9241
1	1980	9242
1	1890	9243
1	1778	9244
1	1686	9245
1	1608	9246
1	1557	9247
1	1516	9248
1	1494	9249
1	1497	9250
1	1515	9251
1	1544	9252
1	1581	9253
1	1614	9254
1	1674	9255
1	1751	9256
1	1841	9257
1	1917	9258
1	1971	9259
1	2156	9220
1	2140	9221
1	2089	9222
1	1998	9223
1	1893	9224
1	1784	9225
1	1702	9226
1	1634	9227
1	1579	9228
1	1542	9229
1	1539	9230
1	1557	9231
1	1584	9232
1	1611	9233
1	1638	9234
1	1687	9235
1	1774	9236
1	1870	9237
1	1962	9238
1	2025	9239
1	1998	9260
1	1983	9261
1	1935	9262
1	1843	9263
1	1723	9264
1	1616	9265
1	1525	9266
1	1450	9267
1	1384	9268
1	1346	9269
1	1333	9270
1	1350	9271
1	1384	9272
1	1431	9273
1	1481	9274
1	1556	9275
1	1656	9276
1	1763	9277
1	1855	9278
1	1911	9279
1	1934	9280
1	1913	9281
1	1854	9282
1	1740	9283
1	1617	9284
1	1503	9285
1	1408	9286
1	1330	9287
1	1277	9288
1	1248	9289
1	1250	9290
1	1280	9291
1	1328	9292
1	1377	9293
1	1436	9294
1	1509	9295
1	1604	9296
1	1708	9297
1	1809	9298
1	1881	9299
1	1917	9300
1	1914	9301
1	1869	9302
1	1779	9303
1	1674	9304
1	1573	9305
1	1485	9306
1	1413	9307
1	1355	9308
1	1325	9309
1	1322	9310
1	1340	9311
1	1372	9312
1	1417	9313
1	1465	9314
1	1543	9315
1	1634	9316
1	1728	9317
1	1812	9318
1	1868	9319
1	1895	9320
1	1880	9321
1	1831	9322
1	1720	9323
1	1607	9324
1	1500	9325
1	1422	9326
1	1356	9327
1	1319	9328
1	1301	9329
1	1305	9330
1	1325	9331
1	1357	9332
1	1399	9333
1	1439	9334
1	1516	9335
1	1613	9336
1	1719	9337
1	1817	9338
1	1883	9339
1	1920	9340
1	1919	9341
1	1868	9342
1	1769	9343
1	1658	9344
1	1555	9345
1	1476	9346
1	1407	9347
1	1359	9348
1	1331	9349
1	1321	9350
1	1333	9351
1	1367	9352
1	1407	9353
1	1453	9354
1	1533	9355
1	1638	9356
1	1751	9357
1	1854	9358
1	1922	9359
1	1939	9380
1	1931	9381
1	1886	9382
1	1791	9383
1	1678	9384
1	1580	9385
1	1494	9386
1	1427	9387
1	1382	9388
1	1360	9389
1	1371	9390
1	1398	9391
1	1431	9392
1	1471	9393
1	1517	9394
1	1589	9395
1	1680	9396
1	1780	9397
1	1868	9398
1	1922	9399
1	1953	9360
1	1939	9361
1	1877	9362
1	1774	9363
1	1652	9364
1	1548	9365
1	1459	9366
1	1392	9367
1	1334	9368
1	1305	9369
1	1302	9370
1	1322	9371
1	1355	9372
1	1404	9373
1	1458	9374
1	1538	9375
1	1638	9376
1	1741	9377
1	1841	9378
1	1908	9379
1	1948	9400
1	1935	9401
1	1882	9402
1	1783	9403
1	1669	9404
1	1569	9405
1	1485	9406
1	1419	9407
1	1364	9408
1	1337	9409
1	1337	9410
1	1357	9411
1	1397	9412
1	1433	9413
1	1476	9414
1	1544	9415
1	1639	9416
1	1751	9417
1	1847	9418
1	1913	9419
1	1948	9420
1	1941	9421
1	1886	9422
1	1791	9423
1	1680	9424
1	1589	9425
1	1513	9426
1	1458	9427
1	1411	9428
1	1373	9429
1	1372	9430
1	1380	9431
1	1402	9432
1	1425	9433
1	1454	9434
1	1514	9435
1	1598	9436
1	1686	9437
1	1769	9438
1	1836	9439
1	1868	9440
1	1864	9441
1	1823	9442
1	1739	9443
1	1640	9444
1	1560	9445
1	1487	9446
1	1430	9447
1	1396	9448
1	1376	9449
1	1382	9450
1	1411	9451
1	1447	9452
1	1491	9453
1	1542	9454
1	1612	9455
1	1709	9456
1	1817	9457
1	1897	9458
1	1957	9459
1	1966	9480
1	1966	9481
1	1913	9482
1	1823	9483
1	1700	9484
1	1594	9485
1	1504	9486
1	1433	9487
1	1368	9488
1	1331	9489
1	1322	9490
1	1333	9491
1	1364	9492
1	1409	9493
1	1458	9494
1	1532	9495
1	1622	9496
1	1713	9497
1	1800	9498
1	1868	9499
1	1985	9460
1	1972	9461
1	1917	9462
1	1817	9463
1	1697	9464
1	1593	9465
1	1503	9466
1	1431	9467
1	1373	9468
1	1343	9469
1	1341	9470
1	1359	9471
1	1391	9472
1	1429	9473
1	1475	9474
1	1546	9475
1	1638	9476
1	1744	9477
1	1847	9478
1	1922	9479
1	1900	9500
1	1896	9501
1	1858	9502
1	1773	9503
1	1671	9504
1	1583	9505
1	1507	9506
1	1450	9507
1	1409	9508
1	1380	9509
1	1382	9510
1	1408	9511
1	1437	9512
1	1473	9513
1	1512	9514
1	1581	9515
1	1674	9516
1	1776	9517
1	1870	9518
1	1937	9519
1	1967	9520
1	1953	9521
1	1901	9522
1	1798	9523
1	1687	9524
1	1582	9525
1	1501	9526
1	1438	9527
1	1395	9528
1	1360	9529
1	1351	9530
1	1371	9531
1	1400	9532
1	1440	9533
1	1490	9534
1	1560	9535
1	1660	9536
1	1764	9537
1	1859	9538
1	1931	9539
1	1973	9540
1	1971	9541
1	1921	9542
1	1837	9543
1	1725	9544
1	1634	9545
1	1558	9546
1	1510	9547
1	1477	9548
1	1464	9549
1	1466	9550
1	1487	9551
1	1519	9552
1	1555	9553
1	1592	9554
1	1651	9555
1	1729	9556
1	1817	9557
1	1890	9558
1	1937	9559
1	1948	9560
1	1921	9561
1	1859	9562
1	1757	9563
1	1644	9564
1	1549	9565
1	1472	9566
1	1421	9567
1	1377	9568
1	1363	9569
1	1370	9570
1	1400	9571
1	1431	9572
1	1475	9573
1	1521	9574
1	1594	9575
1	1686	9576
1	1788	9577
1	1873	9578
1	1926	9579
1	1948	9580
1	1927	9581
1	1872	9582
1	1773	9583
1	1669	9584
1	1575	9585
1	1490	9586
1	1425	9587
1	1373	9588
1	1346	9589
1	1341	9590
1	1359	9591
1	1398	9592
1	1439	9593
1	1487	9594
1	1561	9595
1	1656	9596
1	1756	9597
1	1849	9598
1	1909	9599
1	1935	9600
1	1921	9601
1	1863	9602
1	1771	9603
1	1660	9604
1	1566	9605
1	1490	9606
1	1432	9607
1	1391	9608
1	1372	9609
1	1376	9610
1	1407	9611
1	1445	9612
1	1487	9613
1	1536	9614
1	1607	9615
1	1695	9616
1	1786	9617
1	1868	9618
1	1919	9619
1	1938	9620
1	1919	9621
1	1861	9622
1	1752	9623
1	1644	9624
1	1542	9625
1	1469	9626
1	1405	9627
1	1355	9628
1	1325	9629
1	1321	9630
1	1337	9631
1	1364	9632
1	1400	9633
1	1437	9634
1	1503	9635
1	1596	9636
1	1705	9637
1	1803	9638
1	1874	9639
1	1909	9640
1	1908	9641
1	1866	9642
1	1782	9643
1	1689	9644
1	1607	9645
1	1542	9646
1	1476	9647
1	1435	9648
1	1408	9649
1	1407	9650
1	1430	9651
1	1476	9652
1	1511	9653
1	1548	9654
1	1607	9655
1	1684	9656
1	1764	9657
1	1837	9658
1	1881	9659
1	1899	9660
1	1883	9661
1	1827	9662
1	1737	9663
1	1638	9664
1	1557	9665
1	1497	9666
1	1461	9667
1	1438	9668
1	1437	9669
1	1461	9670
1	1503	9671
1	1564	9672
1	1633	9673
1	1705	9674
1	1802	9675
1	1921	9676
1	2031	9677
1	2135	9678
1	2220	9679
1	2278	9680
1	2293	9681
1	2275	9682
1	2195	9683
1	2097	9684
1	2003	9685
1	1917	9686
1	1847	9687
1	1790	9688
1	1750	9689
1	1733	9690
1	1721	9691
1	1708	9692
1	1697	9693
1	1687	9694
1	1699	9695
1	1731	9696
1	1775	9697
1	1803	9698
1	1814	9699
1	1791	9700
1	1738	9701
1	1658	9702
1	1548	9703
1	1427	9704
1	1323	9705
1	1247	9706
1	1190	9707
1	1157	9708
1	1155	9709
1	1175	9710
1	1215	9711
1	1275	9712
1	1332	9713
1	1398	9714
1	1485	9715
1	1592	9716
1	1705	9717
1	1803	9718
1	1876	9719
1	1913	9720
1	1911	9721
1	1862	9722
1	1770	9723
1	1668	9724
1	1576	9725
1	1499	9726
1	1440	9727
1	1394	9728
1	1364	9729
1	1370	9730
1	1396	9731
1	1424	9732
1	1464	9733
1	1512	9734
1	1584	9735
1	1671	9736
1	1770	9737
1	1863	9738
1	1926	9739
1	1955	9740
1	1944	9741
1	1895	9742
1	1810	9743
1	1697	9744
1	1605	9745
1	1517	9746
1	1450	9747
1	1409	9748
1	1381	9749
1	1384	9750
1	1413	9751
1	1448	9752
1	1490	9753
1	1534	9754
1	1607	9755
1	1693	9756
1	1800	9757
1	1890	9758
1	1948	9759
1	1976	9760
1	1966	9761
1	1915	9762
1	1825	9763
1	1717	9764
1	1629	9765
1	1551	9766
1	1486	9767
1	1440	9768
1	1417	9769
1	1420	9770
1	1445	9771
1	1492	9772
1	1544	9773
1	1600	9774
1	1681	9775
1	1774	9776
1	1872	9777
1	1949	9778
1	1996	9779
1	2001	9780
1	1967	9781
1	1893	9782
1	1788	9783
1	1674	9784
1	1580	9785
1	1502	9786
1	1450	9787
1	1417	9788
1	1403	9789
1	1413	9790
1	1443	9791
1	1487	9792
1	1538	9793
1	1589	9794
1	1660	9795
1	1755	9796
1	1852	9797
1	1932	9798
1	1990	9799
1	2019	9800
1	2001	9801
1	1953	9802
1	1864	9803
1	1751	9804
1	1660	9805
1	1580	9806
1	1523	9807
1	1480	9808
1	1459	9809
1	1463	9810
1	1487	9811
1	1517	9812
1	1554	9813
1	1594	9814
1	1660	9815
1	1748	9816
1	1855	9817
1	1941	9818
1	2002	9819
1	2038	9820
1	2026	9821
1	1980	9822
1	1890	9823
1	1778	9824
1	1683	9825
1	1599	9826
1	1539	9827
1	1498	9828
1	1476	9829
1	1479	9830
1	1500	9831
1	1540	9832
1	1583	9833
1	1634	9834
1	1703	9835
1	1800	9836
1	1896	9837
1	1978	9838
1	2037	9839
1	2064	9840
1	2048	9841
1	1976	9842
1	1886	9843
1	1772	9844
1	1683	9845
1	1606	9846
1	1555	9847
1	1512	9848
1	1488	9849
1	1490	9850
1	1522	9851
1	1567	9852
1	1616	9853
1	1669	9854
1	1743	9855
1	1841	9856
1	1927	9857
1	2006	9858
1	2052	9859
1	2066	9860
1	2042	9861
1	1992	9862
1	1901	9863
1	1796	9864
1	1716	9865
1	1655	9866
1	1610	9867
1	1583	9868
1	1580	9869
1	1598	9870
1	1632	9871
1	1668	9872
1	1709	9873
1	1749	9874
1	1817	9875
1	1898	9876
1	2001	9877
1	2087	9878
1	2145	9879
1	2171	9880
1	2152	9881
1	2090	9882
1	1993	9883
1	1877	9884
1	1769	9885
1	1686	9886
1	1625	9887
1	1581	9888
1	1557	9889
1	1562	9890
1	1589	9891
1	1638	9892
1	1694	9893
1	1751	9894
1	1841	9895
1	1939	9896
1	2043	9897
1	2131	9898
1	2189	9899
1	2212	9900
1	2191	9901
1	2125	9902
1	2022	9903
1	1904	9904
1	1798	9905
1	1708	9906
1	1643	9907
1	1589	9908
1	1563	9909
1	1567	9910
1	1589	9911
1	1618	9912
1	1659	9913
1	1705	9914
1	1774	9915
1	1869	9916
1	1962	9917
1	2050	9918
1	2106	9919
1	2129	9920
1	2105	9921
1	2052	9922
1	1946	9923
1	1827	9924
1	1710	9925
1	1628	9926
1	1549	9927
1	1490	9928
1	1456	9929
1	1451	9930
1	1476	9931
1	1510	9932
1	1555	9933
1	1600	9934
1	1674	9935
1	1764	9936
1	1867	9937
1	1946	9938
1	1999	9939
1	2013	9940
1	1991	9941
1	1922	9942
1	1818	9943
1	1697	9944
1	1594	9945
1	1507	9946
1	1439	9947
1	1409	9948
1	1399	9949
1	1420	9950
1	1456	9951
1	1503	9952
1	1543	9953
1	1581	9954
1	1646	9955
1	1728	9956
1	1821	9957
1	1903	9958
1	1960	9959
1	1967	9980
1	1962	9981
1	1919	9982
1	1819	9983
1	1690	9984
1	1577	9985
1	1479	9986
1	1409	9987
1	1349	9988
1	1319	9989
1	1306	9990
1	1319	9991
1	1348	9992
1	1398	9993
1	1449	9994
1	1526	9995
1	1620	9996
1	1731	9997
1	1827	9998
1	1893	9999
1	1987	9960
1	1968	9961
1	1899	9962
1	1796	9963
1	1679	9964
1	1575	9965
1	1488	9966
1	1432	9967
1	1391	9968
1	1371	9969
1	1373	9970
1	1399	9971
1	1431	9972
1	1467	9973
1	1505	9974
1	1571	9975
1	1660	9976
1	1756	9977
1	1854	9978
1	1926	9979
1	1924	10000
1	1913	10001
1	1856	10002
1	1753	10003
1	1638	10004
1	1536	10005
1	1452	10006
1	1393	10007
1	1346	10008
1	1333	10009
1	1346	10010
1	1374	10011
1	1425	10012
1	1472	10013
1	1525	10014
1	1596	10015
1	1687	10016
1	1788	10017
1	1873	10018
1	1927	10019
1	1953	10020
1	1936	10021
1	1872	10022
1	1769	10023
1	1649	10024
1	1543	10025
1	1451	10026
1	1384	10027
1	1337	10028
1	1314	10029
1	1310	10030
1	1335	10031
1	1374	10032
1	1431	10033
1	1489	10034
1	1572	10035
1	1670	10036
1	1766	10037
1	1861	10038
1	1922	10039
1	1949	10040
1	1935	10041
1	1881	10042
1	1783	10043
1	1669	10044
1	1579	10045
1	1496	10046
1	1438	10047
1	1400	10048
1	1383	10049
1	1395	10050
1	1424	10051
1	1456	10052
1	1494	10053
1	1535	10054
1	1598	10055
1	1683	10056
1	1777	10057
1	1855	10058
1	1908	10059
1	1934	10060
1	1922	10061
1	1878	10062
1	1791	10063
1	1684	10064
1	1589	10065
1	1512	10066
1	1448	10067
1	1399	10068
1	1370	10069
1	1364	10070
1	1384	10071
1	1417	10072
1	1453	10073
1	1503	10074
1	1580	10075
1	1675	10076
1	1783	10077
1	1880	10078
1	1944	10079
1	1974	10080
1	1959	10081
1	1899	10082
1	1812	10083
1	1700	10084
1	1607	10085
1	1529	10086
1	1467	10087
1	1419	10088
1	1394	10089
1	1392	10090
1	1413	10091
1	1450	10092
