#Date:= 2024-10-01T15:21:27.196415
#Sampling Rate(Hz):= 1000
#Labels:= LOD	ECG	TS
1	1572	20
1	1662	21
1	1647	22
1	1634	23
1	1620	24
1	1611	25
1	1607	26
1	1611	27
1	1623	28
1	1643	29
1	1665	30
1	1688	31
1	1712	32
1	1726	33
1	1737	34
1	1738	35
1	1746	36
1	1742	37
1	1738	38
1	1736	39
1	1735	40
1	1737	41
1	1747	42
1	1764	43
1	1774	44
1	1790	45
1	1791	46
1	1795	47
1	1800	48
1	1795	49
1	1786	50
1	1778	51
1	1764	52
1	1738	53
1	1711	54
1	1686	55
1	1667	56
1	1657	57
1	1647	58
1	1643	59
1	1639	60
1	1636	61
1	1644	62
1	1647	63
1	1642	64
1	1640	65
1	1656	66
1	1670	67
1	1688	68
1	1712	69
1	1734	70
1	1754	71
1	1782	72
1	1803	73
1	1826	74
1	1834	75
1	1827	76
1	1815	77
1	1789	78
1	1763	79
1	1737	80
1	1717	81
1	1697	82
1	1685	83
1	1679	84
1	1684	85
1	1694	86
1	1707	87
1	1724	88
1	1740	89
1	1752	90
1	1751	91
1	1744	92
1	1736	93
1	1723	94
1	1712	95
1	1712	96
1	1711	97
1	1713	98
1	1711	99
1	1706	100
1	1701	101
1	1700	102
1	1698	103
1	1699	104
1	1712	105
1	1715	106
1	1727	107
1	1738	108
1	1744	109
1	1749	110
1	1760	111
1	1760	112
1	1756	113
1	1753	114
1	1751	115
1	1750	116
1	1742	117
1	1736	118
1	1726	119
1	1726	120
1	1718	121
1	1715	122
1	1711	123
1	1704	124
1	1692	125
1	1683	126
1	1680	127
1	1690	128
1	1713	129
1	1723	130
1	1725	131
1	1721	132
1	1715	133
1	1713	134
1	1718	135
1	1723	136
1	1734	137
1	1736	138
1	1733	139
1	1727	140
1	1719	141
1	1703	142
1	1697	143
1	1692	144
1	1694	145
1	1698	146
1	1705	147
1	1724	148
1	1750	149
1	1779	150
1	1800	151
1	1824	152
1	1844	153
1	1859	154
1	1868	155
1	1873	156
1	1868	157
1	1854	158
1	1834	159
1	1813	160
1	1787	161
1	1764	162
1	1741	163
1	1713	164
1	1697	165
1	1676	166
1	1665	167
1	1669	168
1	1680	169
1	1692	170
1	1710	171
1	1717	172
1	1726	173
1	1739	174
1	1755	175
1	1767	176
1	1775	177
1	1772	178
1	1754	179
1	1733	180
1	1706	181
1	1688	182
1	1683	183
1	1680	184
1	1683	185
1	1693	186
1	1701	187
1	1708	188
1	1711	189
1	1722	190
1	1736	191
1	1751	192
1	1765	193
1	1789	194
1	1802	195
1	1809	196
1	1814	197
1	1809	198
1	1800	199
1	1800	200
1	1809	201
1	1801	202
1	1791	203
1	1781	204
1	1782	205
1	1787	206
1	1791	207
1	1793	208
1	1794	209
1	1803	210
1	1803	211
1	1814	212
1	1817	213
1	1817	214
1	1819	215
1	1832	216
1	1837	217
1	1841	218
1	1832	219
1	1832	220
1	1829	221
1	1826	222
1	1831	223
1	1838	224
1	1848	225
1	1860	226
1	1871	227
1	1869	228
1	1859	229
1	1844	230
1	1830	231
1	1814	232
1	1791	233
1	1791	234
1	1786	235
1	1785	236
1	1788	237
1	1791	238
1	1793	239
1	1667	260
1	1669	261
1	1665	262
1	1669	263
1	1670	264
1	1671	265
1	1670	266
1	1671	267
1	1674	268
1	1677	269
1	1683	270
1	1686	271
1	1694	272
1	1701	273
1	1710	274
1	1712	275
1	1713	276
1	1702	277
1	1688	278
1	1675	279
1	1796	240
1	1791	241
1	1783	242
1	1769	243
1	1755	244
1	1744	245
1	1742	246
1	1739	247
1	1744	248
1	1749	249
1	1751	250
1	1751	251
1	1747	252
1	1742	253
1	1735	254
1	1721	255
1	1712	256
1	1703	257
1	1687	258
1	1677	259
1	1659	280
1	1646	281
1	1639	282
1	1647	283
1	1662	284
1	1679	285
1	1687	286
1	1701	287
1	1714	288
1	1731	289
1	1738	290
1	1748	291
1	1749	292
1	1749	293
1	1751	294
1	1753	295
1	1757	296
1	1760	297
1	1764	298
1	1760	299
1	1744	300
1	1716	301
1	1688	302
1	1673	303
1	1655	304
1	1634	305
1	1624	306
1	1618	307
1	1625	308
1	1641	309
1	1662	310
1	1687	311
1	1707	312
1	1727	313
1	1750	314
1	1766	315
1	1776	316
1	1778	317
1	1770	318
1	1760	319
1	1743	320
1	1727	321
1	1696	322
1	1679	323
1	1670	324
1	1658	325
1	1659	326
1	1649	327
1	1656	328
1	1657	329
1	1661	330
1	1668	331
1	1678	332
1	1691	333
1	1715	334
1	1743	335
1	1764	336
1	1777	337
1	1777	338
1	1780	339
1	1777	340
1	1764	341
1	1749	342
1	1733	343
1	1720	344
1	1712	345
1	1701	346
1	1697	347
1	1697	348
1	1698	349
1	1705	350
1	1722	351
1	1737	352
1	1751	353
1	1765	354
1	1778	355
1	1791	356
1	1803	357
1	1812	358
1	1817	359
1	1824	360
1	1836	361
1	1856	362
1	1880	363
1	1901	364
1	1926	365
1	1957	366
1	1985	367
1	2018	368
1	2052	369
1	2075	370
1	2093	371
1	2106	372
1	2115	373
1	2112	374
1	2103	375
1	2079	376
1	2066	377
1	2053	378
1	2042	379
1	2028	380
1	2023	381
1	2004	382
1	1997	383
1	1979	384
1	1965	385
1	1949	386
1	1937	387
1	1935	388
1	1939	389
1	1945	390
1	1934	391
1	1920	392
1	1895	393
1	1859	394
1	1821	395
1	1785	396
1	1746	397
1	1710	398
1	1679	399
1	1659	400
1	1647	401
1	1638	402
1	1628	403
1	1610	404
1	1594	405
1	1575	406
1	1560	407
1	1562	408
1	1572	409
1	1593	410
1	1621	411
1	1652	412
1	1682	413
1	1712	414
1	1737	415
1	1755	416
1	1775	417
1	1791	418
1	1811	419
1	1713	440
1	1705	441
1	1690	442
1	1686	443
1	1685	444
1	1688	445
1	1697	446
1	1710	447
1	1726	448
1	1738	449
1	1749	450
1	1746	451
1	1751	452
1	1755	453
1	1764	454
1	1764	455
1	1775	456
1	1780	457
1	1790	458
1	1792	459
1	1817	420
1	1791	421
1	1769	422
1	1744	423
1	1712	424
1	1688	425
1	1681	426
1	1677	427
1	1677	428
1	1685	429
1	1685	430
1	1687	431
1	1686	432
1	1686	433
1	1692	434
1	1703	435
1	1712	436
1	1721	437
1	1724	438
1	1724	439
1	1787	460
1	1773	461
1	1757	462
1	1743	463
1	1733	464
1	1726	465
1	1712	466
1	1708	467
1	1700	468
1	1692	469
1	1692	470
1	1712	471
1	1724	472
1	1738	473
1	1750	474
1	1752	475
1	1751	476
1	1749	477
1	1744	478
1	1742	479
1	1776	500
1	1769	501
1	1760	502
1	1749	503
1	1736	504
1	1723	505
1	1710	506
1	1699	507
1	1696	508
1	1703	509
1	1723	510
1	1744	511
1	1769	512
1	1789	513
1	1791	514
1	1782	515
1	1773	516
1	1756	517
1	1738	518
1	1723	519
1	1742	500
1	1739	501
1	1738	502
1	1736	503
1	1729	504
1	1727	505
1	1729	506
1	1728	507
1	1725	508
1	1723	509
1	1717	510
1	1721	511
1	1734	512
1	1744	513
1	1757	514
1	1764	515
1	1775	516
1	1787	517
1	1791	518
1	1788	519
1	1713	520
1	1711	521
1	1698	522
1	1695	523
1	1690	524
1	1692	525
1	1700	526
1	1712	527
1	1723	528
1	1731	529
1	1746	530
1	1764	531
1	1780	532
1	1788	533
1	1796	534
1	1802	535
1	1803	536
1	1800	537
1	1800	538
1	1800	539
1	1773	580
1	1764	581
1	1751	582
1	1742	583
1	1740	584
1	1749	585
1	1752	586
1	1764	587
1	1778	588
1	1791	589
1	1810	590
1	1826	591
1	1836	592
1	1840	593
1	1838	594
1	1834	595
1	1832	596
1	1827	597
1	1818	598
1	1814	599
1	1765	560
1	1785	561
1	1793	562
1	1801	563
1	1801	564
1	1803	565
1	1813	566
1	1821	567
1	1832	568
1	1841	569
1	1843	570
1	1834	571
1	1828	572
1	1818	573
1	1817	574
1	1817	575
1	1817	576
1	1809	577
1	1792	578
1	1787	579
1	1802	540
1	1794	541
1	1791	542
1	1790	543
1	1782	544
1	1774	545
1	1777	546
1	1769	547
1	1767	548
1	1765	549
1	1764	550
1	1759	551
1	1752	552
1	1742	553
1	1734	554
1	1723	555
1	1712	556
1	1712	557
1	1726	558
1	1749	559
1	1802	600
1	1800	601
1	1803	602
1	1817	603
1	1821	604
1	1832	605
1	1854	606
1	1866	607
1	1878	608
1	1884	609
1	1886	610
1	1881	611
1	1870	612
1	1861	613
1	1860	614
1	1864	615
1	1869	616
1	1869	617
1	1860	618
1	1854	619
1	1845	620
1	1845	621
1	1839	622
1	1837	623
1	1839	624
1	1823	625
1	1817	626
1	1815	627
1	1817	628
1	1818	629
1	1818	630
1	1821	631
1	1832	632
1	1847	633
1	1870	634
1	1892	635
1	1907	636
1	1908	637
1	1904	638
1	1895	639
1	1884	640
1	1869	641
1	1860	642
1	1856	643
1	1850	644
1	1850	645
1	1844	646
1	1843	647
1	1835	648
1	1829	649
1	1830	650
1	1843	651
1	1855	652
1	1871	653
1	1888	654
1	1901	655
1	1911	656
1	1923	657
1	1925	658
1	1922	659
1	1913	660
1	1896	661
1	1880	662
1	1870	663
1	1859	664
1	1849	665
1	1851	666
1	1851	667
1	1855	668
1	1856	669
1	1856	670
1	1856	671
1	1856	672
1	1857	673
1	1859	674
1	1860	675
1	1850	676
1	1844	677
1	1841	678
1	1834	679
1	1652	700
1	1647	701
1	1634	702
1	1629	703
1	1625	704
1	1624	705
1	1620	706
1	1613	707
1	1609	708
1	1611	709
1	1618	710
1	1633	711
1	1642	712
1	1652	713
1	1664	714
1	1670	715
1	1668	716
1	1657	717
1	1639	718
1	1629	719
1	1826	700
1	1823	701
1	1803	702
1	1783	703
1	1752	704
1	1727	705
1	1701	706
1	1683	707
1	1667	708
1	1664	709
1	1667	710
1	1664	711
1	1665	712
1	1669	713
1	1665	714
1	1664	715
1	1670	716
1	1669	717
1	1661	718
1	1658	719
1	1579	740
1	1575	741
1	1570	742
1	1571	743
1	1574	744
1	1581	745
1	1585	746
1	1589	747
1	1594	748
1	1598	749
1	1605	750
1	1599	751
1	1598	752
1	1597	753
1	1593	754
1	1581	755
1	1572	756
1	1560	757
1	1553	758
1	1543	759
1	1615	720
1	1591	721
1	1569	722
1	1549	723
1	1535	724
1	1530	725
1	1530	726
1	1538	727
1	1552	728
1	1572	729
1	1589	730
1	1597	731
1	1600	732
1	1599	733
1	1602	734
1	1603	735
1	1597	736
1	1598	737
1	1594	738
1	1585	739
1	1539	760
1	1544	761
1	1550	762
1	1553	763
1	1553	764
1	1555	765
1	1551	766
1	1552	767
1	1556	768
1	1565	769
1	1575	770
1	1587	771
1	1590	772
1	1589	773
1	1581	774
1	1577	775
1	1574	776
1	1581	777
1	1593	778
1	1607	779
1	1619	780
1	1610	781
1	1597	782
1	1580	783
1	1555	784
1	1530	785
1	1515	786
1	1495	787
1	1485	788
1	1479	789
1	1485	790
1	1498	791
1	1507	792
1	1517	793
1	1535	794
1	1553	795
1	1557	796
1	1566	797
1	1566	798
1	1561	799
1	1559	800
1	1567	801
1	1565	802
1	1555	803
1	1542	804
1	1529	805
1	1518	806
1	1513	807
1	1516	808
1	1528	809
1	1541	810
1	1553	811
1	1562	812
1	1579	813
1	1590	814
1	1606	815
1	1625	816
1	1644	817
1	1660	818
1	1668	819
1	1665	820
1	1657	821
1	1631	822
1	1613	823
1	1592	824
1	1577	825
1	1557	826
1	1543	827
1	1534	828
1	1529	829
1	1526	830
1	1523	831
1	1521	832
1	1517	833
1	1526	834
1	1529	835
1	1529	836
1	1525	837
1	1525	838
1	1528	839
1	1539	840
1	1554	841
1	1567	842
1	1581	843
1	1595	844
1	1607	845
1	1622	846
1	1622	847
1	1612	848
1	1602	849
1	1581	850
1	1562	851
1	1548	852
1	1536	853
1	1533	854
1	1535	855
1	1534	856
1	1538	857
1	1538	858
1	1538	859
1	1535	860
1	1540	861
1	1538	862
1	1535	863
1	1526	864
1	1512	865
1	1508	866
1	1513	867
1	1525	868
1	1541	869
1	1556	870
1	1565	871
1	1568	872
1	1569	873
1	1565	874
1	1557	875
1	1556	876
1	1550	877
1	1534	878
1	1520	879
1	1503	880
1	1488	881
1	1481	882
1	1485	883
1	1493	884
1	1503	885
1	1506	886
1	1525	887
1	1539	888
1	1548	889
1	1550	890
1	1548	891
1	1538	892
1	1526	893
1	1516	894
1	1508	895
1	1508	896
1	1515	897
1	1521	898
1	1529	899
1	1535	900
1	1535	901
1	1540	902
1	1548	903
1	1553	904
1	1554	905
1	1556	906
1	1554	907
1	1555	908
1	1558	909
1	1557	910
1	1559	911
1	1561	912
1	1562	913
1	1566	914
1	1569	915
1	1567	916
1	1566	917
1	1562	918
1	1556	919
1	1547	920
1	1549	921
1	1539	922
1	1539	923
1	1539	924
1	1526	925
1	1508	926
1	1492	927
1	1476	928
1	1463	929
1	1463	930
1	1476	931
1	1490	932
1	1505	933
1	1526	934
1	1544	935
1	1557	936
1	1570	937
1	1575	938
1	1573	939
1	1571	940
1	1563	941
1	1554	942
1	1544	943
1	1535	944
1	1529	945
1	1525	946
1	1530	947
1	1538	948
1	1544	949
1	1551	950
1	1555	951
1	1557	952
1	1547	953
1	1532	954
1	1527	955
1	1508	956
1	1498	957
1	1492	958
1	1494	959
1	1500	960
1	1502	961
1	1503	962
1	1507	963
1	1518	964
1	1530	965
1	1549	966
1	1554	967
1	1553	968
1	1546	969
1	1540	970
1	1530	971
1	1523	972
1	1520	973
1	1525	974
1	1529	975
1	1532	976
1	1540	977
1	1539	978
1	1533	979
1	1526	980
1	1516	981
1	1504	982
1	1498	983
1	1490	984
1	1484	985
1	1479	986
1	1480	987
1	1490	988
1	1503	989
1	1519	990
1	1525	991
1	1530	992
1	1540	993
1	1548	994
1	1546	995
1	1551	996
1	1552	997
1	1546	998
1	1542	999
1	1537	1000
1	1529	1001
1	1524	1002
1	1520	1003
1	1517	1004
1	1521	1005
1	1528	1006
1	1543	1007
1	1566	1008
1	1586	1009
1	1594	1010
1	1602	1011
1	1598	1012
1	1593	1013
1	1592	1014
1	1581	1015
1	1570	1016
1	1566	1017
1	1561	1018
1	1556	1019
1	1550	1020
1	1533	1021
1	1518	1022
1	1503	1023
1	1490	1024
1	1477	1025
1	1472	1026
1	1472	1027
1	1476	1028
1	1494	1029
1	1508	1030
1	1526	1031
1	1535	1032
1	1541	1033
1	1543	1034
1	1538	1035
1	1528	1036
1	1516	1037
1	1506	1038
1	1495	1039
1	1485	1040
1	1485	1041
1	1485	1042
1	1490	1043
1	1503	1044
1	1512	1045
1	1523	1046
1	1529	1047
1	1530	1048
1	1539	1049
1	1546	1050
1	1543	1051
1	1537	1052
1	1529	1053
1	1517	1054
1	1518	1055
1	1526	1056
1	1528	1057
1	1528	1058
1	1529	1059
1	1528	1060
1	1528	1061
1	1524	1062
1	1521	1063
1	1515	1064
1	1512	1065
1	1508	1066
1	1517	1067
1	1535	1068
1	1556	1069
1	1577	1070
1	1592	1071
1	1594	1072
1	1590	1073
1	1585	1074
1	1580	1075
1	1574	1076
1	1561	1077
1	1545	1078
1	1529	1079
1	1510	1080
1	1492	1081
1	1485	1082
1	1483	1083
1	1486	1084
1	1490	1085
1	1499	1086
1	1503	1087
1	1515	1088
1	1530	1089
1	1548	1090
1	1563	1091
1	1580	1092
1	1585	1093
1	1590	1094
1	1593	1095
1	1589	1096
1	1584	1097
1	1577	1098
1	1562	1099
1	1554	1100
1	1553	1101
1	1547	1102
1	1549	1103
1	1543	1104
1	1533	1105
1	1529	1106
1	1528	1107
1	1529	1108
1	1528	1109
1	1529	1110
1	1525	1111
1	1525	1112
1	1520	1113
1	1514	1114
1	1507	1115
1	1513	1116
1	1513	1117
1	1517	1118
1	1526	1119
1	1531	1120
1	1541	1121
1	1551	1122
1	1553	1123
1	1551	1124
1	1554	1125
1	1560	1126
1	1568	1127
1	1571	1128
1	1567	1129
1	1555	1130
1	1543	1131
1	1529	1132
1	1507	1133
1	1490	1134
1	1489	1135
1	1486	1136
1	1485	1137
1	1487	1138
1	1492	1139
1	1495	1140
1	1488	1141
1	1477	1142
1	1469	1143
1	1461	1144
1	1462	1145
1	1474	1146
1	1484	1147
1	1503	1148
1	1526	1149
1	1549	1150
1	1572	1151
1	1594	1152
1	1610	1153
1	1626	1154
1	1645	1155
1	1649	1156
1	1651	1157
1	1637	1158
1	1613	1159
1	1582	1160
1	1557	1161
1	1533	1162
1	1520	1163
1	1503	1164
1	1492	1165
1	1481	1166
1	1475	1167
1	1476	1168
1	1481	1169
1	1485	1170
1	1479	1171
1	1478	1172
1	1482	1173
1	1489	1174
1	1503	1175
1	1525	1176
1	1541	1177
1	1553	1178
1	1559	1179
1	1566	1180
1	1572	1181
1	1580	1182
1	1584	1183
1	1584	1184
1	1574	1185
1	1551	1186
1	1533	1187
1	1527	1188
1	1521	1189
1	1524	1190
1	1530	1191
1	1539	1192
1	1541	1193
1	1542	1194
1	1543	1195
1	1541	1196
1	1539	1197
1	1542	1198
1	1544	1199
1	1544	1200
1	1530	1201
1	1521	1202
1	1512	1203
1	1501	1204
1	1497	1205
1	1500	1206
1	1503	1207
1	1511	1208
1	1520	1209
1	1530	1210
1	1543	1211
1	1555	1212
1	1571	1213
1	1586	1214
1	1600	1215
1	1611	1216
1	1632	1217
1	1647	1218
1	1658	1219
1	1656	1220
1	1650	1221
1	1631	1222
1	1615	1223
1	1607	1224
1	1581	1225
1	1566	1226
1	1554	1227
1	1543	1228
1	1538	1229
1	1543	1230
1	1554	1231
1	1566	1232
1	1574	1233
1	1585	1234
1	1596	1235
1	1609	1236
1	1623	1237
1	1634	1238
1	1636	1239
1	1547	1260
1	1531	1261
1	1521	1262
1	1507	1263
1	1490	1264
1	1475	1265
1	1463	1266
1	1450	1267
1	1439	1268
1	1436	1269
1	1438	1270
1	1453	1271
1	1478	1272
1	1511	1273
1	1539	1274
1	1560	1275
1	1573	1276
1	1581	1277
1	1584	1278
1	1584	1279
1	1580	1280
1	1569	1281
1	1547	1282
1	1524	1283
1	1498	1284
1	1475	1285
1	1453	1286
1	1442	1287
1	1434	1288
1	1432	1289
1	1437	1290
1	1443	1291
1	1451	1292
1	1463	1293
1	1474	1294
1	1477	1295
1	1482	1296
1	1484	1297
1	1481	1298
1	1476	1299
1	1638	1240
1	1634	1241
1	1623	1242
1	1616	1243
1	1606	1244
1	1590	1245
1	1568	1246
1	1551	1247
1	1539	1248
1	1534	1249
1	1539	1250
1	1547	1251
1	1559	1252
1	1578	1253
1	1584	1254
1	1582	1255
1	1577	1256
1	1565	1257
1	1555	1258
1	1549	1259
1	1467	1300
1	1458	1301
1	1446	1302
1	1439	1303
1	1443	1304
1	1450	1305
1	1450	1306
1	1458	1307
1	1468	1308
1	1480	1309
1	1496	1310
1	1512	1311
1	1528	1312
1	1541	1313
1	1554	1314
1	1569	1315
1	1580	1316
1	1581	1317
1	1573	1318
1	1558	1319
1	1547	1320
1	1532	1321
1	1523	1322
1	1512	1323
1	1501	1324
1	1489	1325
1	1485	1326
1	1474	1327
1	1463	1328
1	1463	1329
1	1463	1330
1	1460	1331
1	1451	1332
1	1446	1333
1	1438	1334
1	1445	1335
1	1455	1336
1	1472	1337
1	1481	1338
1	1500	1339
1	1517	1340
1	1530	1341
1	1531	1342
1	1529	1343
1	1530	1344
1	1526	1345
1	1517	1346
1	1508	1347
1	1503	1348
1	1503	1349
1	1508	1350
1	1513	1351
1	1526	1352
1	1531	1353
1	1530	1354
1	1532	1355
1	1542	1356
1	1544	1357
1	1552	1358
1	1560	1359
1	1575	1360
1	1593	1361
1	1612	1362
1	1644	1363
1	1681	1364
1	1713	1365
1	1739	1366
1	1762	1367
1	1778	1368
1	1791	1369
1	1801	1370
1	1814	1371
1	1819	1372
1	1828	1373
1	1836	1374
1	1836	1375
1	1821	1376
1	1803	1377
1	1791	1378
1	1783	1379
1	1782	1380
1	1770	1381
1	1764	1382
1	1760	1383
1	1751	1384
1	1747	1385
1	1746	1386
1	1741	1387
1	1742	1388
1	1743	1389
1	1742	1390
1	1737	1391
1	1729	1392
1	1717	1393
1	1701	1394
1	1683	1395
1	1648	1396
1	1613	1397
1	1569	1398
1	1526	1399
1	1485	1400
1	1456	1401
1	1429	1402
1	1400	1403
1	1372	1404
1	1355	1405
1	1347	1406
1	1347	1407
1	1360	1408
1	1381	1409
1	1409	1410
1	1427	1411
1	1449	1412
1	1468	1413
1	1481	1414
1	1495	1415
1	1517	1416
1	1539	1417
1	1560	1418
1	1574	1419
1	1568	1420
1	1549	1421
1	1511	1422
1	1490	1423
1	1465	1424
1	1454	1425
1	1450	1426
1	1454	1427
1	1463	1428
1	1476	1429
1	1489	1430
1	1503	1431
1	1514	1432
1	1528	1433
1	1541	1434
1	1555	1435
1	1560	1436
1	1564	1437
1	1563	1438
1	1557	1439
1	1551	1440
1	1529	1441
1	1507	1442
1	1491	1443
1	1478	1444
1	1466	1445
1	1458	1446
1	1448	1447
1	1440	1448
1	1448	1449
1	1463	1450
1	1476	1451
1	1476	1452
1	1476	1453
1	1476	1454
1	1479	1455
1	1481	1456
1	1488	1457
1	1491	1458
1	1499	1459
1	1510	1460
1	1529	1461
1	1544	1462
1	1555	1463
1	1555	1464
1	1544	1465
1	1530	1466
1	1517	1467
1	1508	1468
1	1508	1469
1	1517	1470
1	1523	1471
1	1532	1472
1	1538	1473
1	1531	1474
1	1526	1475
1	1524	1476
1	1515	1477
1	1503	1478
1	1489	1479
1	1474	1480
1	1463	1481
1	1458	1482
1	1458	1483
1	1458	1484
1	1461	1485
1	1466	1486
1	1478	1487
1	1492	1488
1	1503	1489
1	1514	1490
1	1529	1491
1	1543	1492
1	1563	1493
1	1583	1494
1	1600	1495
1	1613	1496
1	1625	1497
1	1629	1498
1	1622	1499
1	1618	1500
1	1607	1501
1	1598	1502
1	1587	1503
1	1573	1504
1	1555	1505
1	1547	1506
1	1533	1507
1	1523	1508
1	1514	1509
1	1508	1510
1	1516	1511
1	1525	1512
1	1530	1513
1	1537	1514
1	1541	1515
1	1539	1516
1	1544	1517
1	1551	1518
1	1548	1519
1	1548	1520
1	1556	1521
1	1552	1522
1	1555	1523
1	1560	1524
1	1555	1525
1	1558	1526
1	1563	1527
1	1569	1528
1	1575	1529
1	1580	1530
1	1581	1531
1	1585	1532
1	1593	1533
1	1599	1534
1	1601	1535
1	1598	1536
1	1589	1537
1	1580	1538
1	1566	1539
1	1561	1540
1	1551	1541
1	1539	1542
1	1534	1543
1	1529	1544
1	1525	1545
1	1514	1546
1	1513	1547
1	1514	1548
1	1521	1549
1	1530	1550
1	1542	1551
1	1550	1552
1	1559	1553
1	1568	1554
1	1579	1555
1	1584	1556
1	1602	1557
1	1618	1558
1	1634	1559
1	1639	1560
1	1631	1561
1	1618	1562
1	1600	1563
1	1581	1564
1	1561	1565
1	1553	1566
1	1534	1567
1	1527	1568
1	1517	1569
1	1520	1570
1	1530	1571
1	1538	1572
1	1550	1573
1	1564	1574
1	1589	1575
1	1607	1576
1	1629	1577
1	1642	1578
1	1647	1579
1	1650	1580
1	1651	1581
1	1636	1582
1	1623	1583
1	1611	1584
1	1595	1585
1	1584	1586
1	1576	1587
1	1572	1588
1	1569	1589
1	1571	1590
1	1571	1591
1	1581	1592
1	1596	1593
1	1613	1594
1	1639	1595
1	1663	1596
1	1681	1597
1	1690	1598
1	1699	1599
1	1701	1600
1	1699	1601
1	1688	1602
1	1673	1603
1	1654	1604
1	1634	1605
1	1608	1606
1	1600	1607
1	1600	1608
1	1608	1609
1	1626	1610
1	1647	1611
1	1660	1612
1	1667	1613
1	1673	1614
1	1685	1615
1	1691	1616
1	1698	1617
1	1702	1618
1	1704	1619
1	1706	1620
1	1694	1621
1	1674	1622
1	1648	1623
1	1618	1624
1	1593	1625
1	1581	1626
1	1567	1627
1	1557	1628
1	1569	1629
1	1583	1630
1	1608	1631
1	1637	1632
1	1661	1633
1	1687	1634
1	1711	1635
1	1730	1636
1	1746	1637
1	1763	1638
1	1773	1639
1	1782	1640
1	1781	1641
1	1774	1642
1	1764	1643
1	1759	1644
1	1738	1645
1	1717	1646
1	1699	1647
1	1686	1648
1	1683	1649
1	1681	1650
1	1679	1651
1	1685	1652
1	1698	1653
1	1714	1654
1	1737	1655
1	1753	1656
1	1764	1657
1	1764	1658
1	1764	1659
1	1755	1660
1	1744	1661
1	1733	1662
1	1719	1663
1	1701	1664
1	1679	1665
1	1658	1666
1	1647	1667
1	1647	1668
1	1652	1669
1	1661	1670
1	1680	1671
1	1688	1672
1	1698	1673
1	1703	1674
1	1701	1675
1	1695	1676
1	1686	1677
1	1679	1678
1	1664	1679
1	1651	1680
1	1633	1681
1	1615	1682
1	1600	1683
1	1593	1684
1	1592	1685
1	1597	1686
1	1594	1687
1	1593	1688
1	1593	1689
1	1589	1690
1	1585	1691
1	1586	1692
1	1592	1693
1	1589	1694
1	1583	1695
1	1569	1696
1	1561	1697
1	1552	1698
1	1541	1699
1	1534	1700
1	1535	1701
1	1533	1702
1	1535	1703
1	1529	1704
1	1526	1705
1	1518	1706
1	1508	1707
1	1500	1708
1	1494	1709
1	1492	1710
1	1487	1711
1	1481	1712
1	1476	1713
1	1469	1714
1	1463	1715
1	1463	1716
1	1460	1717
1	1459	1718
1	1464	1719
1	1472	1720
1	1476	1721
1	1481	1722
1	1476	1723
1	1476	1724
1	1479	1725
1	1476	1726
1	1463	1727
1	1453	1728
1	1449	1729
1	1442	1730
1	1442	1731
1	1437	1732
1	1437	1733
1	1452	1734
1	1464	1735
1	1476	1736
1	1487	1737
1	1500	1738
1	1510	1739
1	1513	1740
1	1505	1741
1	1503	1742
1	1494	1743
1	1482	1744
1	1463	1745
1	1450	1746
1	1436	1747
1	1431	1748
1	1436	1749
1	1445	1750
1	1458	1751
1	1469	1752
1	1479	1753
1	1477	1754
1	1476	1755
1	1465	1756
1	1461	1757
1	1454	1758
1	1450	1759
1	1443	1760
1	1436	1761
1	1424	1762
1	1412	1763
1	1409	1764
1	1409	1765
1	1408	1766
1	1410	1767
1	1415	1768
1	1421	1769
1	1424	1770
1	1424	1771
1	1427	1772
1	1429	1773
1	1429	1774
1	1437	1775
1	1456	1776
1	1473	1777
1	1482	1778
1	1485	1779
1	1475	1780
1	1460	1781
1	1450	1782
1	1446	1783
1	1441	1784
1	1443	1785
1	1445	1786
1	1449	1787
1	1450	1788
1	1450	1789
1	1450	1790
1	1460	1791
1	1464	1792
1	1476	1793
1	1489	1794
1	1504	1795
1	1516	1796
1	1512	1797
1	1503	1798
1	1492	1799
1	1482	1800
1	1467	1801
1	1456	1802
1	1453	1803
1	1455	1804
1	1456	1805
1	1461	1806
1	1459	1807
1	1457	1808
1	1456	1809
1	1463	1810
1	1473	1811
1	1485	1812
1	1498	1813
1	1503	1814
1	1510	1815
1	1503	1816
1	1495	1817
1	1490	1818
1	1479	1819
1	1471	1820
1	1462	1821
1	1446	1822
1	1424	1823
1	1418	1824
1	1407	1825
1	1409	1826
1	1415	1827
1	1424	1828
1	1429	1829
1	1438	1830
1	1449	1831
1	1458	1832
1	1468	1833
1	1477	1834
1	1485	1835
1	1497	1836
1	1501	1837
1	1503	1838
1	1511	1839
1	1502	1900
1	1482	1901
1	1468	1902
1	1455	1903
1	1448	1904
1	1439	1905
1	1428	1906
1	1424	1907
1	1429	1908
1	1438	1909
1	1445	1910
1	1455	1911
1	1461	1912
1	1467	1913
1	1470	1914
1	1476	1915
1	1487	1916
1	1503	1917
1	1511	1918
1	1508	1919
1	1514	1840
1	1508	1841
1	1498	1842
1	1487	1843
1	1474	1844
1	1463	1845
1	1455	1846
1	1463	1847
1	1472	1848
1	1477	1849
1	1484	1850
1	1492	1851
1	1490	1852
1	1477	1853
1	1459	1854
1	1445	1855
1	1440	1856
1	1445	1857
1	1450	1858
1	1458	1859
1	1531	1880
1	1535	1881
1	1529	1882
1	1524	1883
1	1521	1884
1	1523	1885
1	1529	1886
1	1529	1887
1	1527	1888
1	1519	1889
1	1511	1890
1	1503	1891
1	1508	1892
1	1511	1893
1	1515	1894
1	1519	1895
1	1529	1896
1	1530	1897
1	1526	1898
1	1514	1899
1	1472	1860
1	1477	1861
1	1482	1862
1	1478	1863
1	1467	1864
1	1454	1865
1	1448	1866
1	1430	1867
1	1420	1868
1	1419	1869
1	1425	1870
1	1437	1871
1	1450	1872
1	1464	1873
1	1476	1874
1	1495	1875
1	1508	1876
1	1525	1877
1	1533	1878
1	1535	1879
1	1553	1940
1	1513	1941
1	1471	1942
1	1438	1943
1	1415	1944
1	1398	1945
1	1394	1946
1	1403	1947
1	1423	1948
1	1449	1949
1	1481	1950
1	1506	1951
1	1531	1952
1	1546	1953
1	1546	1954
1	1530	1955
1	1513	1956
1	1492	1957
1	1476	1958
1	1466	1959
1	1503	1920
1	1490	1921
1	1476	1922
1	1466	1923
1	1458	1924
1	1450	1925
1	1454	1926
1	1461	1927
1	1469	1928
1	1485	1929
1	1494	1930
1	1504	1931
1	1517	1932
1	1530	1933
1	1547	1934
1	1560	1935
1	1572	1936
1	1585	1937
1	1590	1938
1	1580	1939
1	1454	1960
1	1448	1961
1	1443	1962
1	1441	1963
1	1446	1964
1	1450	1965
1	1450	1966
1	1453	1967
1	1458	1968
1	1466	1969
1	1478	1970
1	1501	1971
1	1512	1972
1	1520	1973
1	1526	1974
1	1527	1975
1	1530	1976
1	1534	1977
1	1539	1978
1	1530	1979
1	1474	2000
1	1466	2001
1	1454	2002
1	1450	2003
1	1450	2004
1	1451	2005
1	1456	2006
1	1464	2007
1	1476	2008
1	1494	2009
1	1512	2010
1	1527	2011
1	1537	2012
1	1539	2013
1	1533	2014
1	1530	2015
1	1533	2016
1	1530	2017
1	1525	2018
1	1512	2019
1	1513	1980
1	1503	1981
1	1487	1982
1	1476	1983
1	1474	1984
1	1472	1985
1	1475	1986
1	1479	1987
1	1489	1988
1	1508	1989
1	1529	1990
1	1547	1991
1	1561	1992
1	1567	1993
1	1566	1994
1	1555	1995
1	1540	1996
1	1528	1997
1	1505	1998
1	1489	1999
1	1494	2020
1	1478	2021
1	1472	2022
1	1462	2023
1	1461	2024
1	1459	2025
1	1450	2026
1	1439	2027
1	1440	2028
1	1450	2029
1	1465	2030
1	1486	2031
1	1495	2032
1	1505	2033
1	1525	2034
1	1537	2035
1	1553	2036
1	1566	2037
1	1581	2038
1	1593	2039
1	1607	2040
1	1608	2041
1	1611	2042
1	1604	2043
1	1589	2044
1	1569	2045
1	1554	2046
1	1529	2047
1	1501	2048
1	1476	2049
1	1459	2050
1	1450	2051
1	1443	2052
1	1438	2053
1	1434	2054
1	1435	2055
1	1431	2056
1	1442	2057
1	1453	2058
1	1464	2059
1	1476	2060
1	1488	2061
1	1497	2062
1	1503	2063
1	1508	2064
1	1513	2065
1	1520	2066
1	1530	2067
1	1547	2068
1	1569	2069
1	1591	2070
1	1600	2071
1	1607	2072
1	1600	2073
1	1587	2074
1	1577	2075
1	1568	2076
1	1556	2077
1	1542	2078
1	1519	2079
1	1513	2080
1	1503	2081
1	1495	2082
1	1482	2083
1	1471	2084
1	1463	2085
1	1451	2086
1	1451	2087
1	1454	2088
1	1459	2089
1	1463	2090
1	1476	2091
1	1492	2092
1	1505	2093
1	1526	2094
1	1543	2095
1	1557	2096
1	1560	2097
1	1555	2098
1	1546	2099
1	1533	2100
1	1512	2101
1	1498	2102
1	1490	2103
1	1494	2104
1	1502	2105
1	1512	2106
1	1515	2107
1	1525	2108
1	1532	2109
1	1544	2110
1	1554	2111
1	1556	2112
1	1558	2113
1	1555	2114
1	1551	2115
1	1540	2116
1	1530	2117
1	1519	2118
1	1505	2119
1	1492	2120
1	1481	2121
1	1474	2122
1	1466	2123
1	1476	2124
1	1476	2125
1	1480	2126
1	1489	2127
1	1502	2128
1	1517	2129
1	1533	2130
1	1545	2131
1	1552	2132
1	1553	2133
1	1554	2134
1	1557	2135
1	1561	2136
1	1557	2137
1	1543	2138
1	1536	2139
1	1517	2140
1	1503	2141
1	1499	2142
1	1499	2143
1	1501	2144
1	1503	2145
1	1500	2146
1	1499	2147
1	1498	2148
1	1497	2149
1	1503	2150
1	1523	2151
1	1541	2152
1	1559	2153
1	1577	2154
1	1590	2155
1	1607	2156
1	1621	2157
1	1620	2158
1	1607	2159
1	1580	2160
1	1540	2161
1	1503	2162
1	1471	2163
1	1448	2164
1	1436	2165
1	1438	2166
1	1449	2167
1	1466	2168
1	1488	2169
1	1508	2170
1	1531	2171
1	1550	2172
1	1557	2173
1	1558	2174
1	1557	2175
1	1551	2176
1	1551	2177
1	1549	2178
1	1553	2179
1	1555	2180
1	1566	2181
1	1569	2182
1	1569	2183
1	1563	2184
1	1556	2185
1	1554	2186
1	1548	2187
1	1543	2188
1	1543	2189
1	1537	2190
1	1529	2191
1	1521	2192
1	1520	2193
1	1524	2194
1	1534	2195
1	1555	2196
1	1569	2197
1	1572	2198
1	1568	2199
1	1561	2200
1	1554	2201
1	1544	2202
1	1536	2203
1	1530	2204
1	1529	2205
1	1528	2206
1	1525	2207
1	1520	2208
1	1525	2209
1	1542	2210
1	1562	2211
1	1585	2212
1	1608	2213
1	1633	2214
1	1652	2215
1	1673	2216
1	1690	2217
1	1704	2218
1	1711	2219
1	1687	2240
1	1688	2241
1	1696	2242
1	1709	2243
1	1708	2244
1	1698	2245
1	1688	2246
1	1677	2247
1	1668	2248
1	1662	2249
1	1664	2250
1	1660	2251
1	1655	2252
1	1647	2253
1	1638	2254
1	1638	2255
1	1646	2256
1	1652	2257
1	1656	2258
1	1660	2259
1	1706	2220
1	1685	2221
1	1656	2222
1	1625	2223
1	1593	2224
1	1562	2225
1	1544	2226
1	1524	2227
1	1513	2228
1	1503	2229
1	1516	2230
1	1529	2231
1	1555	2232
1	1587	2233
1	1619	2234
1	1642	2235
1	1656	2236
1	1665	2237
1	1678	2238
1	1684	2239
1	1662	2260
1	1669	2261
1	1662	2262
1	1651	2263
1	1638	2264
1	1619	2265
1	1595	2266
1	1580	2267
1	1565	2268
1	1553	2269
1	1541	2270
1	1541	2271
1	1539	2272
1	1543	2273
1	1547	2274
1	1551	2275
1	1555	2276
1	1562	2277
1	1570	2278
1	1575	2279
1	1575	2280
1	1564	2281
1	1555	2282
1	1550	2283
1	1544	2284
1	1544	2285
1	1553	2286
1	1558	2287
1	1576	2288
1	1592	2289
1	1605	2290
1	1610	2291
1	1608	2292
1	1612	2293
1	1620	2294
1	1631	2295
1	1634	2296
1	1638	2297
1	1635	2298
1	1625	2299
1	1607	2300
1	1594	2301
1	1580	2302
1	1566	2303
1	1563	2304
1	1559	2305
1	1556	2306
1	1553	2307
1	1545	2308
1	1542	2309
1	1537	2310
1	1531	2311
1	1543	2312
1	1557	2313
1	1576	2314
1	1590	2315
1	1607	2316
1	1618	2317
1	1629	2318
1	1634	2319
1	1647	2320
1	1656	2321
1	1661	2322
1	1659	2323
1	1657	2324
1	1652	2325
1	1642	2326
1	1621	2327
1	1605	2328
1	1593	2329
1	1580	2330
1	1568	2331
1	1559	2332
1	1553	2333
1	1562	2334
1	1571	2335
1	1584	2336
1	1602	2337
1	1616	2338
1	1624	2339
1	1633	2340
1	1628	2341
1	1625	2342
1	1619	2343
1	1609	2344
1	1598	2345
1	1583	2346
1	1576	2347
1	1574	2348
1	1582	2349
1	1597	2350
1	1611	2351
1	1634	2352
1	1649	2353
1	1658	2354
1	1664	2355
1	1660	2356
1	1658	2357
1	1657	2358
1	1656	2359
1	1652	2360
1	1657	2361
1	1652	2362
1	1647	2363
1	1647	2364
1	1644	2365
1	1643	2366
1	1644	2367
1	1645	2368
1	1650	2369
1	1652	2370
1	1651	2371
1	1661	2372
1	1682	2373
1	1701	2374
1	1730	2375
1	1765	2376
1	1796	2377
1	1828	2378
1	1846	2379
1	1862	2380
1	1875	2381
1	1881	2382
1	1886	2383
1	1895	2384
1	1907	2385
1	1926	2386
1	1944	2387
1	1958	2388
1	1970	2389
1	1974	2390
1	1988	2391
1	1994	2392
1	2002	2393
1	2011	2394
1	2019	2395
1	2026	2396
1	2035	2397
1	2039	2398
1	2041	2399
1	2041	2400
1	2029	2401
1	2022	2402
1	2012	2403
1	2001	2404
1	1986	2405
1	1971	2406
1	1949	2407
1	1932	2408
1	1920	2409
1	1908	2410
1	1904	2411
1	1903	2412
1	1906	2413
1	1900	2414
1	1895	2415
1	1877	2416
1	1862	2417
1	1845	2418
1	1826	2419
1	1791	2420
1	1764	2421
1	1740	2422
1	1712	2423
1	1703	2424
1	1692	2425
1	1686	2426
1	1683	2427
1	1680	2428
1	1686	2429
1	1695	2430
1	1710	2431
1	1728	2432
1	1744	2433
1	1755	2434
1	1764	2435
1	1765	2436
1	1765	2437
1	1765	2438
1	1785	2439
1	1787	2440
1	1791	2441
1	1802	2442
1	1815	2443
1	1820	2444
1	1821	2445
1	1817	2446
1	1815	2447
1	1809	2448
1	1806	2449
1	1813	2450
1	1828	2451
1	1841	2452
1	1852	2453
1	1859	2454
1	1869	2455
1	1878	2456
1	1886	2457
1	1893	2458
1	1896	2459
1	1896	2460
1	1886	2461
1	1875	2462
1	1868	2463
1	1864	2464
1	1868	2465
1	1881	2466
1	1895	2467
1	1908	2468
1	1917	2469
1	1917	2470
1	1914	2471
1	1909	2472
1	1903	2473
1	1895	2474
1	1881	2475
1	1869	2476
1	1870	2477
1	1882	2478
1	1887	2479
1	1891	2480
1	1896	2481
1	1896	2482
1	1891	2483
1	1886	2484
1	1883	2485
1	1880	2486
1	1878	2487
1	1881	2488
1	1895	2489
1	1909	2490
1	1922	2491
1	1939	2492
1	1953	2493
1	1962	2494
1	1973	2495
1	1986	2496
1	1994	2497
1	2001	2498
1	2002	2499
1	2003	2500
1	1992	2501
1	1976	2502
1	1967	2503
1	1961	2504
1	1959	2505
1	1950	2506
1	1950	2507
1	1953	2508
1	1962	2509
1	1976	2510
1	1999	2511
1	2012	2512
1	2026	2513
1	2032	2514
1	2039	2515
1	2036	2516
1	2030	2517
1	2034	2518
1	2035	2519
1	2084	2540
1	2097	2541
1	2114	2542
1	2120	2543
1	2132	2544
1	2133	2545
1	2135	2546
1	2134	2547
1	2129	2548
1	2118	2549
1	2109	2550
1	2101	2551
1	2100	2552
1	2093	2553
1	2088	2554
1	2090	2555
1	2099	2556
1	2102	2557
1	2107	2558
1	2119	2559
1	2038	2520
1	2037	2521
1	2043	2522
1	2044	2523
1	2050	2524
1	2050	2525
1	2061	2526
1	2070	2527
1	2065	2528
1	2067	2529
1	2061	2530
1	2050	2531
1	2045	2532
1	2043	2533
1	2050	2534
1	2055	2535
1	2066	2536
1	2073	2537
1	2078	2538
1	2078	2539
1	2129	2560
1	2139	2561
1	2154	2562
1	2161	2563
1	2173	2564
1	2183	2565
1	2183	2566
1	2183	2567
1	2176	2568
1	2170	2569
1	2170	2570
1	2181	2571
1	2188	2572
1	2204	2573
1	2222	2574
1	2244	2575
1	2258	2576
1	2262	2577
1	2264	2578
1	2273	2579
1	2276	2580
1	2264	2581
1	2260	2582
1	2250	2583
1	2236	2584
1	2220	2585
1	2211	2586
1	2195	2587
1	2183	2588
1	2183	2589
1	2184	2590
1	2186	2591
1	2191	2592
1	2194	2593
1	2197	2594
1	2210	2595
1	2222	2596
1	2249	2597
1	2266	2598
1	2276	2599
1	2279	2600
1	2287	2601
1	2288	2602
1	2291	2603
1	2299	2604
1	2303	2605
1	2310	2606
1	2315	2607
1	2316	2608
1	2316	2609
1	2314	2610
1	2311	2611
1	2314	2612
1	2317	2613
1	2318	2614
1	2315	2615
1	2322	2616
1	2326	2617
1	2336	2618
1	2345	2619
1	2355	2620
1	2362	2621
1	2367	2622
1	2366	2623
1	2376	2624
1	2381	2625
1	2389	2626
1	2397	2627
1	2414	2628
1	2430	2629
1	2446	2630
1	2460	2631
1	2469	2632
1	2471	2633
1	2471	2634
1	2484	2635
1	2482	2636
1	2485	2637
1	2496	2638
1	2502	2639
1	2505	2640
1	2496	2641
1	2488	2642
1	2485	2643
1	2485	2644
1	2482	2645
1	2480	2646
1	2463	2647
1	2444	2648
1	2428	2649
1	2420	2650
1	2419	2651
1	2430	2652
1	2444	2653
1	2460	2654
1	2480	2655
1	2495	2656
1	2506	2657
1	2515	2658
1	2519	2659
1	2516	2680
1	2520	2681
1	2525	2682
1	2527	2683
1	2527	2684
1	2525	2685
1	2519	2686
1	2523	2687
1	2529	2688
1	2540	2689
1	2548	2690
1	2555	2691
1	2552	2692
1	2550	2693
1	2552	2694
1	2558	2695
1	2559	2696
1	2566	2697
1	2571	2698
1	2577	2699
1	2519	2660
1	2525	2661
1	2525	2662
1	2528	2663
1	2535	2664
1	2542	2665
1	2548	2666
1	2555	2667
1	2559	2668
1	2559	2669
1	2557	2670
1	2543	2671
1	2539	2672
1	2535	2673
1	2530	2674
1	2527	2675
1	2530	2676
1	2525	2677
1	2519	2678
1	2516	2679
1	2578	2700
1	2570	2701
1	2568	2702
1	2563	2703
1	2553	2704
1	2534	2705
1	2516	2706
1	2496	2707
1	2471	2708
1	2453	2709
1	2450	2710
1	2458	2711
1	2471	2712
1	2487	2713
1	2496	2714
1	2503	2715
1	2509	2716
1	2512	2717
1	2510	2718
1	2506	2719
1	2498	2720
1	2496	2721
1	2488	2722
1	2480	2723
1	2459	2724
1	2445	2725
1	2426	2726
1	2404	2727
1	2381	2728
1	2366	2729
1	2353	2730
1	2353	2731
1	2363	2732
1	2380	2733
1	2399	2734
1	2417	2735
1	2422	2736
1	2424	2737
1	2419	2738
1	2414	2739
1	2404	2740
1	2390	2741
1	2382	2742
1	2380	2743
1	2389	2744
1	2393	2745
1	2394	2746
1	2403	2747
1	2412	2748
1	2419	2749
1	2422	2750
1	2435	2751
1	2440	2752
1	2445	2753
1	2458	2754
1	2471	2755
1	2479	2756
1	2480	2757
1	2482	2758
1	2471	2759
1	2446	2760
1	2417	2761
1	2391	2762
1	2368	2763
1	2359	2764
1	2355	2765
1	2364	2766
1	2363	2767
1	2362	2768
1	2367	2769
1	2380	2770
1	2394	2771
1	2408	2772
1	2422	2773
1	2432	2774
1	2449	2775
1	2461	2776
1	2471	2777
1	2476	2778
1	2469	2779
1	2451	2780
1	2444	2781
1	2433	2782
1	2424	2783
1	2420	2784
1	2418	2785
1	2419	2786
1	2424	2787
1	2440	2788
1	2462	2789
1	2481	2790
1	2488	2791
1	2496	2792
1	2506	2793
1	2509	2794
1	2509	2795
1	2512	2796
1	2506	2797
1	2496	2798
1	2488	2799
1	2476	2800
1	2471	2801
1	2472	2802
1	2473	2803
1	2476	2804
1	2474	2805
1	2471	2806
1	2476	2807
1	2476	2808
1	2476	2809
1	2471	2810
1	2467	2811
1	2462	2812
1	2461	2813
1	2462	2814
1	2471	2815
1	2484	2816
1	2491	2817
1	2493	2818
1	2489	2819
1	2485	2820
1	2476	2821
1	2475	2822
1	2471	2823
1	2471	2824
1	2471	2825
1	2474	2826
1	2471	2827
1	2461	2828
1	2469	2829
1	2460	2830
1	2462	2831
1	2464	2832
1	2471	2833
1	2474	2834
1	2471	2835
1	2463	2836
1	2453	2837
1	2447	2838
1	2445	2839
1	2445	2840
1	2445	2841
1	2445	2842
1	2446	2843
1	2461	2844
1	2468	2845
1	2474	2846
1	2485	2847
1	2496	2848
1	2506	2849
1	2512	2850
1	2509	2851
1	2508	2852
1	2505	2853
1	2504	2854
1	2500	2855
1	2499	2856
1	2492	2857
1	2480	2858
1	2471	2859
1	2467	2860
1	2469	2861
1	2474	2862
1	2480	2863
1	2484	2864
1	2477	2865
1	2467	2866
1	2456	2867
1	2444	2868
1	2435	2869
1	2434	2870
1	2446	2871
1	2460	2872
1	2477	2873
1	2496	2874
1	2513	2875
1	2522	2876
1	2525	2877
1	2524	2878
1	2517	2879
1	2505	2880
1	2482	2881
1	2454	2882
1	2431	2883
1	2421	2884
1	2420	2885
1	2427	2886
1	2426	2887
1	2420	2888
1	2419	2889
1	2419	2890
1	2412	2891
1	2405	2892
1	2405	2893
1	2417	2894
1	2430	2895
1	2440	2896
1	2458	2897
1	2474	2898
1	2487	2899
1	2493	2900
1	2496	2901
1	2496	2902
1	2496	2903
1	2491	2904
1	2480	2905
1	2466	2906
1	2444	2907
1	2423	2908
1	2416	2909
1	2413	2910
1	2412	2911
1	2424	2912
1	2445	2913
1	2466	2914
1	2484	2915
1	2503	2916
1	2515	2917
1	2525	2918
1	2535	2919
1	2428	2940
1	2420	2941
1	2421	2942
1	2422	2943
1	2423	2944
1	2423	2945
1	2431	2946
1	2425	2947
1	2419	2948
1	2417	2949
1	2415	2950
1	2419	2951
1	2424	2952
1	2428	2953
1	2424	2954
1	2422	2955
1	2417	2956
1	2410	2957
1	2400	2958
1	2388	2959
1	2537	2920
1	2535	2921
1	2533	2922
1	2516	2923
1	2502	2924
1	2485	2925
1	2462	2926
1	2432	2927
1	2404	2928
1	2384	2929
1	2371	2930
1	2366	2931
1	2366	2932
1	2369	2933
1	2375	2934
1	2387	2935
1	2394	2936
1	2408	2937
1	2418	2938
1	2424	2939
1	2374	3000
1	2341	3001
1	2320	3002
1	2303	3003
1	2289	3004
1	2288	3005
1	2301	3006
1	2314	3007
1	2322	3008
1	2332	3009
1	2343	3010
1	2358	3011
1	2369	3012
1	2378	3013
1	2381	3014
1	2382	3015
1	2372	3016
1	2362	3017
1	2346	3018
1	2330	3019
1	2480	2980
1	2445	2981
1	2410	2982
1	2370	2983
1	2338	2984
1	2310	2985
1	2282	2986
1	2273	2987
1	2271	2988
1	2280	2989
1	2292	2990
1	2323	2991
1	2345	2992
1	2371	2993
1	2393	2994
1	2409	2995
1	2422	2996
1	2422	2997
1	2414	2998
1	2395	2999
1	2377	2960
1	2368	2961
1	2355	2962
1	2341	2963
1	2336	2964
1	2336	2965
1	2341	2966
1	2351	2967
1	2362	2968
1	2379	2969
1	2399	2970
1	2417	2971
1	2434	2972
1	2448	2973
1	2464	2974
1	2471	2975
1	2488	2976
1	2496	2977
1	2502	2978
1	2497	2979
1	2316	3020
1	2314	3021
1	2309	3022
1	2305	3023
1	2301	3024
1	2294	3025
1	2289	3026
1	2287	3027
1	2279	3028
1	2271	3029
1	2264	3030
1	2262	3031
1	2262	3032
1	2263	3033
1	2266	3034
1	2276	3035
1	2287	3036
1	2289	3037
1	2291	3038
1	2292	3039
1	2300	3060
1	2287	3061
1	2277	3062
1	2267	3063
1	2255	3064
1	2250	3065
1	2235	3066
1	2210	3067
1	2192	3068
1	2183	3069
1	2183	3070
1	2183	3071
1	2184	3072
1	2196	3073
1	2210	3074
1	2236	3075
1	2246	3076
1	2261	3077
1	2271	3078
1	2273	3079
1	2299	3040
1	2293	3041
1	2280	3042
1	2262	3043
1	2248	3044
1	2241	3045
1	2231	3046
1	2233	3047
1	2236	3048
1	2242	3049
1	2251	3050
1	2265	3051
1	2276	3052
1	2292	3053
1	2313	3054
1	2316	3055
1	2315	3056
1	2314	3057
1	2311	3058
1	2304	3059
1	2267	3080
1	2262	3081
1	2249	3082
1	2222	3083
1	2201	3084
1	2183	3085
1	2170	3086
1	2161	3087
1	2157	3088
1	2161	3089
1	2165	3090
1	2168	3091
1	2177	3092
1	2183	3093
1	2183	3094
1	2184	3095
1	2188	3096
1	2176	3097
1	2168	3098
1	2157	3099
1	2153	3100
1	2150	3101
1	2153	3102
1	2152	3103
1	2155	3104
1	2158	3105
1	2161	3106
1	2168	3107
1	2162	3108
1	2154	3109
1	2144	3110
1	2146	3111
1	2141	3112
1	2141	3113
1	2140	3114
1	2142	3115
1	2145	3116
1	2142	3117
1	2143	3118
1	2143	3119
1	2140	3120
1	2133	3121
1	2133	3122
1	2133	3123
1	2138	3124
1	2143	3125
1	2152	3126
1	2145	3127
1	2142	3128
1	2135	3129
1	2127	3130
1	2129	3131
1	2133	3132
1	2145	3133
1	2155	3134
1	2159	3135
1	2163	3136
1	2163	3137
1	2157	3138
1	2137	3139
1	2119	3140
1	2105	3141
1	2094	3142
1	2087	3143
1	2079	3144
1	2087	3145
1	2093	3146
1	2097	3147
1	2090	3148
1	2079	3149
1	2063	3150
1	2039	3151
1	2026	3152
1	2024	3153
1	2016	3154
1	2014	3155
1	2024	3156
1	2026	3157
1	2026	3158
1	2027	3159
1	2034	3180
1	2013	3181
1	2000	3182
1	1993	3183
1	1990	3184
1	1988	3185
1	1989	3186
1	1985	3187
1	1980	3188
1	1976	3189
1	1976	3190
1	1978	3191
1	1982	3192
1	1988	3193
1	1996	3194
1	1996	3195
1	1989	3196
1	1988	3197
1	1989	3198
1	1997	3199
1	2025	3160
1	2022	3161
1	2022	3162
1	2026	3163
1	2031	3164
1	2039	3165
1	2034	3166
1	2042	3167
1	2053	3168
1	2063	3169
1	2070	3170
1	2079	3171
1	2082	3172
1	2081	3173
1	2078	3174
1	2074	3175
1	2066	3176
1	2066	3177
1	2063	3178
1	2050	3179
1	2001	3200
1	2014	3201
1	2013	3202
1	2004	3203
1	1991	3204
1	1977	3205
1	1963	3206
1	1948	3207
1	1939	3208
1	1944	3209
1	1959	3210
1	1973	3211
1	1988	3212
1	1999	3213
1	1998	3214
1	1984	3215
1	1975	3216
1	1962	3217
1	1949	3218
1	1936	3219
1	1921	3220
1	1904	3221
1	1896	3222
1	1893	3223
1	1895	3224
1	1898	3225
1	1908	3226
1	1917	3227
1	1924	3228
1	1934	3229
1	1944	3230
1	1958	3231
1	1961	3232
1	1963	3233
1	1970	3234
1	1978	3235
1	1979	3236
1	1976	3237
1	1971	3238
1	1961	3239
1	1942	3240
1	1913	3241
1	1895	3242
1	1877	3243
1	1860	3244
1	1846	3245
1	1846	3246
1	1850	3247
1	1857	3248
1	1872	3249
1	1893	3250
1	1919	3251
1	1949	3252
1	1974	3253
1	1991	3254
1	1995	3255
1	1983	3256
1	1968	3257
1	1953	3258
1	1937	3259
1	1926	3260
1	1931	3261
1	1927	3262
1	1922	3263
1	1912	3264
1	1895	3265
1	1877	3266
1	1864	3267
1	1856	3268
1	1850	3269
1	1850	3270
1	1856	3271
1	1865	3272
1	1881	3273
1	1894	3274
1	1901	3275
1	1913	3276
1	1922	3277
1	1930	3278
1	1932	3279
1	1931	3280
1	1930	3281
1	1922	3282
1	1909	3283
1	1899	3284
1	1885	3285
1	1860	3286
1	1842	3287
1	1819	3288
1	1803	3289
1	1809	3290
1	1819	3291
1	1836	3292
1	1850	3293
1	1865	3294
1	1880	3295
1	1895	3296
1	1899	3297
1	1898	3298
1	1893	3299
1	1877	3300
1	1854	3301
1	1835	3302
1	1817	3303
1	1792	3304
1	1778	3305
1	1766	3306
1	1757	3307
1	1751	3308
1	1751	3309
1	1760	3310
1	1768	3311
1	1773	3312
1	1781	3313
1	1788	3314
1	1791	3315
1	1789	3316
1	1780	3317
1	1770	3318
1	1754	3319
1	1729	3320
1	1703	3321
1	1669	3322
1	1635	3323
1	1625	3324
1	1611	3325
1	1600	3326
1	1602	3327
1	1610	3328
1	1619	3329
1	1631	3330
1	1648	3331
1	1670	3332
1	1685	3333
1	1692	3334
1	1698	3335
1	1710	3336
1	1712	3337
1	1719	3338
1	1715	3339
1	1713	3340
1	1701	3341
1	1690	3342
1	1678	3343
1	1664	3344
1	1657	3345
1	1649	3346
1	1647	3347
1	1644	3348
1	1647	3349
1	1653	3350
1	1661	3351
1	1665	3352
1	1662	3353
1	1661	3354
1	1660	3355
1	1662	3356
1	1665	3357
1	1664	3358
1	1662	3359
1	1661	3360
1	1649	3361
1	1637	3362
1	1625	3363
1	1611	3364
1	1603	3365
1	1594	3366
1	1583	3367
1	1577	3368
1	1571	3369
1	1579	3370
1	1590	3371
1	1611	3372
1	1639	3373
1	1662	3374
1	1686	3375
1	1691	3376
1	1698	3377
1	1695	3378
1	1681	3379
1	1661	3380
1	1651	3381
1	1625	3382
1	1601	3383
1	1580	3384
1	1555	3385
1	1538	3386
1	1526	3387
1	1524	3388
1	1530	3389
1	1544	3390
1	1559	3391
1	1581	3392
1	1602	3393
1	1620	3394
1	1633	3395
1	1636	3396
1	1633	3397
1	1625	3398
1	1628	3399
1	1625	3400
1	1619	3401
1	1611	3402
1	1605	3403
1	1594	3404
1	1589	3405
1	1584	3406
1	1597	3407
1	1618	3408
1	1644	3409
1	1673	3410
1	1710	3411
1	1742	3412
1	1773	3413
1	1798	3414
1	1817	3415
1	1834	3416
1	1843	3417
1	1844	3418
1	1841	3419
1	1829	3420
1	1813	3421
1	1796	3422
1	1791	3423
1	1796	3424
1	1802	3425
1	1816	3426
1	1817	3427
1	1821	3428
1	1831	3429
1	1844	3430
1	1865	3431
1	1880	3432
1	1893	3433
1	1899	3434
1	1904	3435
1	1893	3436
1	1878	3437
1	1861	3438
1	1836	3439
1	1801	3440
1	1767	3441
1	1726	3442
1	1698	3443
1	1665	3444
1	1635	3445
1	1607	3446
1	1579	3447
1	1547	3448
1	1525	3449
1	1503	3450
1	1479	3451
1	1463	3452
1	1446	3453
1	1427	3454
1	1413	3455
1	1404	3456
1	1398	3457
1	1395	3458
1	1394	3459
1	1395	3460
1	1396	3461
1	1398	3462
1	1400	3463
1	1411	3464
1	1424	3465
1	1435	3466
1	1446	3467
1	1456	3468
1	1471	3469
1	1489	3470
1	1517	3471
1	1542	3472
1	1562	3473
1	1570	3474
1	1567	3475
1	1559	3476
1	1551	3477
1	1543	3478
1	1530	3479
1	1521	3480
1	1503	3481
1	1489	3482
1	1476	3483
1	1466	3484
1	1453	3485
1	1449	3486
1	1437	3487
1	1430	3488
1	1436	3489
1	1446	3490
1	1463	3491
1	1476	3492
1	1490	3493
1	1502	3494
1	1510	3495
1	1505	3496
1	1503	3497
1	1498	3498
1	1482	3499
1	1464	3500
1	1450	3501
1	1428	3502
1	1417	3503
1	1409	3504
1	1406	3505
1	1405	3506
1	1405	3507
1	1406	3508
1	1414	3509
1	1430	3510
1	1450	3511
1	1477	3512
1	1504	3513
1	1529	3514
1	1541	3515
1	1549	3516
1	1548	3517
1	1542	3518
1	1535	3519
1	1530	3520
1	1529	3521
1	1525	3522
1	1512	3523
1	1504	3524
1	1494	3525
1	1481	3526
1	1461	3527
1	1436	3528
1	1412	3529
1	1384	3530
1	1381	3531
1	1371	3532
1	1377	3533
1	1384	3534
1	1407	3535
1	1422	3536
1	1435	3537
1	1443	3538
1	1448	3539
1	1450	3540
1	1452	3541
1	1458	3542
1	1454	3543
1	1442	3544
1	1429	3545
1	1426	3546
1	1422	3547
1	1420	3548
1	1427	3549
1	1449	3550
1	1469	3551
1	1490	3552
1	1503	3553
1	1514	3554
1	1513	3555
1	1503	3556
1	1499	3557
1	1490	3558
1	1479	3559
1	1463	3560
1	1450	3561
1	1435	3562
1	1425	3563
1	1424	3564
1	1425	3565
1	1431	3566
1	1435	3567
1	1437	3568
1	1448	3569
1	1462	3570
1	1475	3571
1	1490	3572
1	1502	3573
1	1499	3574
1	1492	3575
1	1489	3576
1	1480	3577
1	1477	3578
1	1480	3579
1	1476	3580
1	1469	3581
1	1454	3582
1	1437	3583
1	1424	3584
1	1409	3585
1	1398	3586
1	1384	3587
1	1381	3588
1	1381	3589
1	1384	3590
1	1399	3591
1	1410	3592
1	1422	3593
1	1432	3594
1	1446	3595
1	1461	3596
1	1472	3597
1	1476	3598
1	1472	3599
1	1458	3600
1	1438	3601
1	1425	3602
1	1419	3603
1	1406	3604
1	1398	3605
1	1394	3606
1	1380	3607
1	1376	3608
1	1377	3609
1	1390	3610
1	1400	3611
1	1413	3612
1	1424	3613
1	1433	3614
1	1440	3615
1	1440	3616
1	1445	3617
1	1448	3618
1	1453	3619
1	1466	3620
1	1480	3621
1	1482	3622
1	1484	3623
1	1482	3624
1	1477	3625
1	1481	3626
1	1490	3627
1	1495	3628
1	1495	3629
1	1490	3630
1	1483	3631
1	1474	3632
1	1469	3633
1	1463	3634
1	1458	3635
1	1459	3636
1	1454	3637
1	1452	3638
1	1443	3639
1	1438	3640
1	1426	3641
1	1417	3642
1	1407	3643
1	1404	3644
1	1407	3645
1	1410	3646
1	1422	3647
1	1436	3648
1	1458	3649
1	1477	3650
1	1500	3651
1	1514	3652
1	1530	3653
1	1549	3654
1	1559	3655
1	1562	3656
1	1555	3657
1	1538	3658
1	1517	3659
1	1498	3660
1	1472	3661
1	1458	3662
1	1446	3663
1	1438	3664
1	1437	3665
1	1445	3666
1	1449	3667
1	1460	3668
1	1476	3669
1	1494	3670
1	1513	3671
1	1532	3672
1	1548	3673
1	1555	3674
1	1556	3675
1	1553	3676
1	1553	3677
1	1544	3678
1	1536	3679
1	1527	3680
1	1519	3681
1	1503	3682
1	1491	3683
1	1486	3684
1	1481	3685
1	1476	3686
1	1474	3687
1	1476	3688
1	1480	3689
1	1487	3690
1	1485	3691
1	1487	3692
1	1489	3693
1	1490	3694
1	1491	3695
1	1508	3696
1	1530	3697
1	1553	3698
1	1566	3699
1	1570	3700
1	1569	3701
1	1566	3702
1	1561	3703
1	1554	3704
1	1547	3705
1	1529	3706
1	1514	3707
1	1502	3708
1	1488	3709
1	1480	3710
1	1482	3711
1	1491	3712
1	1503	3713
1	1514	3714
1	1526	3715
1	1540	3716
1	1551	3717
1	1553	3718
1	1549	3719
1	1541	3720
1	1526	3721
1	1512	3722
1	1504	3723
1	1508	3724
1	1518	3725
1	1530	3726
1	1535	3727
1	1531	3728
1	1512	3729
1	1485	3730
1	1458	3731
1	1438	3732
1	1425	3733
1	1413	3734
1	1402	3735
1	1395	3736
1	1395	3737
1	1397	3738
1	1391	3739
1	1381	3740
1	1384	3741
1	1376	3742
1	1384	3743
1	1380	3744
1	1373	3745
1	1368	3746
1	1360	3747
1	1356	3748
1	1351	3749
1	1350	3750
1	1346	3751
1	1348	3752
1	1354	3753
1	1359	3754
1	1359	3755
1	1355	3756
1	1337	3757
1	1315	3758
1	1289	3759
1	1269	3760
1	1258	3761
1	1249	3762
1	1241	3763
1	1240	3764
1	1242	3765
1	1246	3766
1	1256	3767
1	1267	3768
1	1269	3769
1	1274	3770
1	1279	3771
1	1278	3772
1	1273	3773
1	1271	3774
1	1273	3775
1	1279	3776
1	1287	3777
1	1295	3778
1	1298	3779
1	1293	3780
1	1271	3781
1	1249	3782
1	1229	3783
1	1215	3784
1	1204	3785
1	1203	3786
1	1202	3787
1	1202	3788
1	1211	3789
1	1217	3790
1	1228	3791
1	1241	3792
1	1258	3793
1	1274	3794
1	1280	3795
1	1278	3796
1	1269	3797
1	1265	3798
1	1251	3799
1	1240	3800
1	1238	3801
1	1233	3802
1	1236	3803
1	1238	3804
1	1241	3805
1	1238	3806
1	1230	3807
1	1224	3808
1	1219	3809
1	1222	3810
1	1225	3811
1	1240	3812
1	1258	3813
1	1278	3814
1	1293	3815
1	1314	3816
1	1319	3817
1	1319	3818
1	1305	3819
1	1287	3820
1	1267	3821
1	1249	3822
1	1228	3823
1	1215	3824
1	1206	3825
1	1207	3826
1	1215	3827
1	1225	3828
1	1238	3829
1	1245	3830
1	1251	3831
1	1248	3832
1	1249	3833
1	1241	3834
1	1240	3835
1	1236	3836
1	1240	3837
1	1245	3838
1	1254	3839
1	1258	3840
1	1257	3841
1	1255	3842
1	1252	3843
1	1256	3844
1	1256	3845
1	1257	3846
1	1262	3847
1	1270	3848
1	1276	3849
1	1276	3850
1	1273	3851
1	1271	3852
1	1268	3853
1	1264	3854
1	1254	3855
1	1241	3856
1	1226	3857
1	1209	3858
1	1193	3859
1	1312	3880
1	1297	3881
1	1285	3882
1	1269	3883
1	1267	3884
1	1266	3885
1	1259	3886
1	1247	3887
1	1233	3888
1	1222	3889
1	1215	3890
1	1217	3891
1	1223	3892
1	1228	3893
1	1237	3894
1	1241	3895
1	1252	3896
1	1269	3897
1	1292	3898
1	1311	3899
1	1181	3860
1	1179	3861
1	1179	3862
1	1184	3863
1	1188	3864
1	1206	3865
1	1220	3866
1	1232	3867
1	1237	3868
1	1241	3869
1	1251	3870
1	1255	3871
1	1259	3872
1	1267	3873
1	1278	3874
1	1291	3875
1	1309	3876
1	1319	3877
1	1324	3878
1	1320	3879
1	1323	3900
1	1322	3901
1	1317	3902
1	1300	3903
1	1284	3904
1	1269	3905
1	1268	3906
1	1274	3907
1	1282	3908
1	1291	3909
1	1298	3910
1	1310	3911
1	1322	3912
1	1325	3913
1	1319	3914
1	1310	3915
1	1293	3916
1	1277	3917
1	1262	3918
1	1245	3919
1	1241	3920
1	1238	3921
1	1229	3922
1	1231	3923
1	1233	3924
1	1233	3925
1	1233	3926
1	1238	3927
1	1231	3928
1	1220	3929
1	1220	3930
1	1228	3931
1	1241	3932
1	1257	3933
1	1272	3934
1	1287	3935
1	1301	3936
1	1311	3937
1	1323	3938
1	1325	3939
1	1320	3960
1	1319	3961
1	1314	3962
1	1310	3963
1	1302	3964
1	1296	3965
1	1297	3966
1	1299	3967
1	1302	3968
1	1297	3969
1	1293	3970
1	1281	3971
1	1269	3972
1	1260	3973
1	1253	3974
1	1249	3975
1	1248	3976
1	1253	3977
1	1263	3978
1	1279	3979
1	1331	3940
1	1328	3941
1	1323	3942
1	1322	3943
1	1319	3944
1	1309	3945
1	1293	3946
1	1271	3947
1	1251	3948
1	1229	3949
1	1215	3950
1	1215	3951
1	1220	3952
1	1235	3953
1	1245	3954
1	1256	3955
1	1269	3956
1	1285	3957
1	1304	3958
1	1317	3959
1	1298	3980
1	1320	3981
1	1330	3982
1	1331	3983
1	1327	3984
1	1322	3985
1	1317	3986
1	1311	3987
1	1308	3988
1	1307	3989
1	1310	3990
1	1309	3991
1	1311	3992
1	1310	3993
1	1304	3994
1	1298	3995
1	1297	3996
1	1293	3997
1	1299	3998
1	1309	3999
1	1315	4000
1	1319	4001
1	1325	4002
1	1332	4003
1	1334	4004
1	1328	4005
1	1313	4006
1	1299	4006
1	1286	4008
1	1274	4009
1	1269	4010
1	1278	4011
1	1288	4012
1	1302	4013
1	1321	4014
1	1334	4014
1	1346	4016
1	1347	4017
1	1350	4018
1	1348	4019
1	1337	4020
1	1312	4021
1	1286	4022
1	1266	4022
1	1246	4024
1	1237	4025
1	1235	4026
1	1230	4027
1	1233	4028
1	1242	4029
1	1263	4030
1	1286	4030
1	1314	4032
1	1335	4033
1	1354	4034
1	1371	4035
1	1371	4036
1	1369	4037
1	1366	4038
1	1364	4038
1	1359	4060
1	1362	4061
1	1366	4062
1	1372	4062
1	1376	4064
1	1377	4065
1	1363	4066
1	1353	4067
1	1344	4068
1	1332	4069
1	1329	4070
1	1332	4070
1	1332	4072
1	1333	4073
1	1339	4074
1	1347	4075
1	1359	4076
1	1363	4077
1	1361	4078
1	1359	4078
1	1353	4040
1	1341	4041
1	1325	4042
1	1320	4043
1	1307	4044
1	1293	4045
1	1280	4046
1	1273	4046
1	1272	4048
1	1272	4049
1	1272	4050
1	1267	4051
1	1269	4052
1	1278	4053
1	1292	4054
1	1305	4054
1	1324	4056
1	1339	4057
1	1350	4058
1	1355	4059
1	1363	4080
1	1361	4081
1	1359	4082
1	1351	4083
1	1346	4084
1	1342	4085
1	1337	4086
1	1337	4086
1	1337	4088
1	1339	4089
1	1345	4090
1	1346	4091
1	1346	4092
1	1348	4093
1	1350	4094
1	1353	4094
1	1355	4096
1	1368	4097
1	1373	4098
1	1380	4099
1	1377	4100
1	1381	4101
1	1372	4102
1	1356	4103
1	1336	4104
1	1319	4105
1	1303	4106
1	1293	4107
1	1282	4108
1	1280	4109
1	1278	4110
1	1274	4111
1	1283	4112
1	1293	4113
1	1307	4114
1	1322	4115
1	1344	4116
1	1363	4117
1	1377	4118
1	1398	4119
1	1410	4120
1	1413	4121
1	1410	4122
1	1395	4123
1	1373	4124
1	1358	4125
1	1338	4126
1	1324	4127
1	1309	4128
1	1299	4129
1	1309	4130
1	1329	4131
1	1355	4132
1	1394	4133
1	1431	4134
1	1455	4135
1	1475	4136
1	1472	4137
1	1456	4138
1	1439	4139
1	1418	4140
1	1391	4141
1	1361	4142
1	1335	4143
1	1318	4144
1	1309	4145
1	1317	4146
1	1319	4147
1	1328	4148
1	1343	4149
1	1351	4150
1	1361	4151
1	1372	4152
1	1376	4153
1	1384	4154
1	1394	4155
1	1392	4156
1	1395	4157
1	1398	4158
1	1403	4159
1	1409	4160
1	1417	4161
1	1424	4162
1	1431	4163
1	1435	4164
1	1431	4165
1	1415	4166
1	1395	4167
1	1372	4168
1	1358	4169
1	1347	4170
1	1337	4171
1	1337	4172
1	1343	4173
1	1350	4174
1	1367	4175
1	1384	4176
1	1397	4177
1	1403	4178
1	1408	4179
1	1409	4180
1	1398	4181
1	1379	4182
1	1369	4183
1	1356	4184
1	1346	4185
1	1343	4186
1	1338	4187
1	1337	4188
1	1335	4189
1	1343	4190
1	1361	4191
1	1379	4192
1	1398	4193
1	1412	4194
1	1424	4195
1	1432	4196
1	1437	4197
1	1440	4198
1	1445	4199
1	1446	4200
1	1437	4201
1	1428	4202
1	1425	4203
1	1423	4204
1	1422	4205
1	1424	4206
1	1424	4207
1	1424	4208
1	1420	4209
1	1418	4210
1	1415	4211
1	1412	4212
1	1407	4213
1	1400	4214
1	1399	4215
1	1398	4216
1	1409	4217
1	1419	4218
1	1422	4219
1	1413	4220
1	1412	4221
1	1402	4222
1	1400	4223
1	1405	4224
1	1419	4225
1	1427	4226
1	1437	4227
1	1448	4228
1	1450	4229
1	1449	4230
1	1446	4231
1	1445	4232
1	1448	4233
1	1451	4234
1	1463	4235
1	1478	4236
1	1491	4237
1	1512	4238
1	1529	4239
1	1548	4240
1	1548	4241
1	1539	4242
1	1526	4243
1	1511	4244
1	1503	4245
1	1481	4246
1	1465	4247
1	1450	4248
1	1431	4249
1	1413	4250
1	1402	4251
1	1398	4252
1	1399	4253
1	1404	4254
1	1412	4255
1	1418	4256
1	1422	4257
1	1426	4258
1	1432	4259
1	1524	4280
1	1523	4281
1	1512	4282
1	1501	4283
1	1491	4284
1	1490	4285
1	1488	4286
1	1485	4287
1	1485	4288
1	1490	4289
1	1508	4290
1	1526	4291
1	1547	4292
1	1565	4293
1	1577	4294
1	1581	4295
1	1590	4296
1	1592	4297
1	1585	4298
1	1579	4299
1	1573	4300
1	1573	4301
1	1572	4302
1	1570	4303
1	1566	4304
1	1555	4305
1	1530	4306
1	1517	4307
1	1513	4308
1	1518	4309
1	1526	4310
1	1538	4311
1	1546	4312
1	1546	4313
1	1543	4314
1	1536	4315
1	1539	4316
1	1548	4317
1	1562	4318
1	1579	4319
1	1435	4260
1	1431	4261
1	1430	4262
1	1436	4263
1	1445	4264
1	1454	4265
1	1472	4266
1	1477	4267
1	1485	4268
1	1490	4269
1	1492	4270
1	1494	4271
1	1503	4272
1	1518	4273
1	1538	4274
1	1547	4275
1	1546	4276
1	1542	4277
1	1536	4278
1	1529	4279
1	1584	4320
1	1581	4321
1	1575	4322
1	1562	4323
1	1547	4324
1	1531	4325
1	1519	4326
1	1494	4327
1	1476	4328
1	1463	4329
1	1454	4330
1	1449	4331
1	1445	4332
1	1442	4333
1	1445	4334
1	1446	4335
1	1449	4336
1	1460	4337
1	1473	4338
1	1481	4339
1	1497	4340
1	1503	4341
1	1503	4342
1	1510	4343
1	1515	4344
1	1525	4345
1	1528	4346
1	1523	4347
1	1515	4348
1	1499	4349
1	1478	4350
1	1459	4351
1	1455	4352
1	1461	4353
1	1461	4354
1	1463	4355
1	1469	4356
1	1475	4357
1	1476	4358
1	1476	4359
1	1472	4360
1	1461	4361
1	1449	4362
1	1435	4363
1	1420	4364
1	1400	4365
1	1384	4366
1	1384	4367
1	1394	4368
1	1396	4369
1	1402	4370
1	1419	4371
1	1436	4372
1	1452	4373
1	1476	4374
1	1490	4375
1	1492	4376
1	1489	4377
1	1481	4378
1	1476	4379
1	1446	4400
1	1439	4401
1	1425	4402
1	1411	4403
1	1398	4404
1	1395	4405
1	1395	4406
1	1399	4407
1	1411	4408
1	1423	4409
1	1437	4410
1	1450	4411
1	1468	4412
1	1481	4413
1	1494	4414
1	1503	4415
1	1517	4416
1	1524	4417
1	1529	4418
1	1529	4419
1	1469	4380
1	1461	4381
1	1456	4382
1	1450	4383
1	1443	4384
1	1440	4385
1	1438	4386
1	1436	4387
1	1437	4388
1	1445	4389
1	1458	4390
1	1466	4391
1	1472	4392
1	1472	4393
1	1469	4394
1	1465	4395
1	1456	4396
1	1453	4397
1	1450	4398
1	1450	4399
1	1814	4440
1	1816	4441
1	1816	4442
1	1813	4443
1	1800	4444
1	1791	4445
1	1782	4446
1	1764	4447
1	1751	4448
1	1737	4449
1	1726	4450
1	1723	4451
1	1729	4452
1	1738	4453
1	1754	4454
1	1764	4455
1	1764	4456
1	1761	4457
1	1752	4458
1	1743	4459
1	1526	4420
1	1514	4421
1	1499	4422
1	1474	4423
1	1449	4424
1	1434	4425
1	1422	4426
1	1419	4427
1	1428	4428
1	1447	4429
1	1475	4430
1	1503	4431
1	1536	4432
1	1576	4433
1	1609	4434
1	1651	4435
1	1686	4436
1	1718	4437
1	1753	4438
1	1787	4439
1	1728	4460
1	1717	4461
1	1700	4462
1	1682	4463
1	1660	4464
1	1634	4465
1	1600	4466
1	1571	4467
1	1542	4468
1	1515	4469
1	1494	4470
1	1474	4471
1	1458	4472
1	1438	4473
1	1419	4474
1	1400	4475
1	1384	4476
1	1369	4477
1	1359	4478
1	1355	4479
1	1358	4480
1	1371	4481
1	1377	4482
1	1382	4483
1	1392	4484
1	1400	4485
1	1408	4486
1	1407	4487
1	1402	4488
1	1396	4489
1	1398	4490
1	1419	4491
1	1437	4492
1	1454	4493
1	1469	4494
1	1476	4495
1	1481	4496
1	1489	4497
1	1498	4498
1	1510	4499
1	1520	4500
1	1517	4501
1	1508	4502
1	1499	4503
1	1480	4504
1	1463	4505
1	1452	4506
1	1440	4507
1	1438	4508
1	1445	4509
1	1458	4510
1	1476	4511
1	1495	4512
1	1512	4513
1	1521	4514
1	1529	4515
1	1529	4516
1	1529	4517
1	1529	4518
1	1526	4519
1	1515	4520
1	1504	4521
1	1490	4522
1	1482	4523
1	1476	4524
1	1469	4525
1	1454	4526
1	1450	4527
1	1449	4528
1	1449	4529
1	1451	4530
1	1452	4531
1	1467	4532
1	1484	4533
1	1499	4534
1	1506	4535
1	1511	4536
1	1517	4537
1	1527	4538
1	1536	4539
1	1544	4540
1	1539	4541
1	1529	4542
1	1517	4543
1	1511	4544
1	1503	4545
1	1490	4546
1	1477	4547
1	1473	4548
1	1465	4549
1	1465	4550
1	1469	4551
1	1482	4552
1	1501	4553
1	1523	4554
1	1544	4555
1	1571	4556
1	1593	4557
1	1608	4558
1	1618	4559
1	1611	4560
1	1596	4561
1	1580	4562
1	1555	4563
1	1528	4564
1	1503	4565
1	1487	4566
1	1472	4567
1	1456	4568
1	1448	4569
1	1441	4570
1	1440	4571
1	1450	4572
1	1464	4573
1	1480	4574
1	1494	4575
1	1502	4576
1	1505	4577
1	1512	4578
1	1517	4579
1	1521	4580
1	1526	4581
1	1515	4582
1	1503	4583
1	1494	4584
1	1490	4585
1	1490	4586
1	1490	4587
1	1489	4588
1	1489	4589
1	1499	4590
1	1503	4591
1	1512	4592
1	1526	4593
1	1538	4594
1	1546	4595
1	1561	4596
1	1571	4597
1	1577	4598
1	1581	4599
1	1584	4600
1	1582	4601
1	1576	4602
1	1567	4603
1	1555	4604
1	1550	4605
1	1539	4606
1	1529	4607
1	1513	4608
1	1503	4609
1	1499	4610
1	1503	4611
1	1517	4612
1	1535	4613
1	1556	4614
1	1581	4615
1	1598	4616
1	1607	4617
1	1608	4618
1	1605	4619
1	1596	4620
1	1582	4621
1	1580	4622
1	1577	4623
1	1570	4624
1	1557	4625
1	1555	4626
1	1538	4627
1	1526	4628
1	1512	4629
1	1503	4630
1	1495	4631
1	1502	4632
1	1510	4633
1	1529	4634
1	1551	4635
1	1567	4636
1	1589	4637
1	1606	4638
1	1612	4639
1	1611	4640
1	1611	4641
1	1607	4642
1	1607	4643
1	1594	4644
1	1590	4645
1	1587	4646
1	1592	4647
1	1605	4648
1	1620	4649
1	1642	4650
1	1659	4651
1	1675	4652
1	1687	4653
1	1689	4654
1	1691	4655
1	1694	4656
1	1685	4657
1	1664	4658
1	1635	4659
1	1607	4660
1	1578	4661
1	1543	4662
1	1517	4663
1	1494	4664
1	1485	4665
1	1477	4666
1	1481	4667
1	1487	4668
1	1492	4669
1	1505	4670
1	1528	4671
1	1550	4672
1	1574	4673
1	1603	4674
1	1634	4675
1	1662	4676
1	1692	4677
1	1724	4678
1	1752	4679
1	1766	4680
1	1765	4681
1	1757	4682
1	1744	4683
1	1724	4684
1	1701	4685
1	1686	4686
1	1664	4687
1	1649	4688
1	1641	4689
1	1629	4690
1	1619	4691
1	1615	4692
1	1620	4693
1	1629	4694
1	1634	4695
1	1645	4696
1	1655	4697
1	1665	4698
1	1671	4699
1	1673	4700
1	1678	4701
1	1672	4702
1	1667	4703
1	1665	4704
1	1671	4705
1	1679	4706
1	1688	4707
1	1698	4708
1	1701	4709
1	1705	4710
1	1708	4711
1	1712	4712
1	1712	4713
1	1707	4714
1	1697	4715
1	1700	4716
1	1708	4717
1	1721	4718
1	1738	4719
1	1750	4720
1	1753	4721
1	1751	4722
1	1737	4723
1	1721	4724
1	1704	4725
1	1690	4726
1	1684	4727
1	1677	4728
1	1679	4729
1	1686	4730
1	1691	4731
1	1700	4732
1	1710	4733
1	1721	4734
1	1737	4735
1	1736	4736
1	1731	4737
1	1728	4738
1	1724	4739
1	1716	4740
1	1697	4741
1	1685	4742
1	1674	4743
1	1669	4744
1	1672	4745
1	1674	4746
1	1668	4747
1	1665	4748
1	1664	4749
1	1664	4750
1	1664	4751
1	1661	4752
1	1658	4753
1	1644	4754
1	1632	4755
1	1612	4756
1	1609	4757
1	1609	4758
1	1609	4759
1	1611	4760
1	1618	4761
1	1610	4762
1	1597	4763
1	1581	4764
1	1568	4765
1	1561	4766
1	1557	4767
1	1559	4768
1	1569	4769
1	1583	4770
1	1598	4771
1	1612	4772
1	1621	4773
1	1631	4774
1	1630	4775
1	1628	4776
1	1607	4777
1	1580	4778
1	1551	4779
1	1530	4780
1	1519	4781
1	1503	4782
1	1481	4783
1	1463	4784
1	1445	4785
1	1433	4786
1	1424	4787
1	1419	4788
1	1421	4789
1	1425	4790
1	1445	4791
1	1463	4792
1	1479	4793
1	1495	4794
1	1503	4795
1	1510	4796
1	1512	4797
1	1511	4798
1	1505	4799
1	1494	4800
1	1476	4801
1	1454	4802
1	1436	4803
1	1423	4804
1	1417	4805
1	1423	4806
1	1427	4807
1	1431	4808
1	1434	4809
1	1437	4810
1	1445	4811
1	1453	4812
1	1467	4813
1	1481	4814
1	1499	4815
1	1508	4816
1	1514	4817
1	1516	4818
1	1508	4819
1	1494	4820
1	1481	4821
1	1462	4822
1	1446	4823
1	1435	4824
1	1424	4825
1	1409	4826
1	1403	4827
1	1395	4828
1	1381	4829
1	1376	4830
1	1377	4831
1	1384	4832
1	1399	4833
1	1411	4834
1	1420	4835
1	1427	4836
1	1438	4837
1	1451	4838
1	1459	4839
1	1475	4840
1	1476	4841
1	1476	4842
1	1476	4843
1	1472	4844
1	1468	4845
1	1458	4846
1	1449	4847
1	1438	4848
1	1436	4849
1	1428	4850
1	1427	4851
1	1425	4852
1	1429	4853
1	1439	4854
1	1453	4855
1	1473	4856
1	1489	4857
1	1503	4858
1	1521	4859
1	1529	4860
1	1527	4861
1	1524	4862
1	1512	4863
1	1490	4864
1	1459	4865
1	1430	4866
1	1400	4867
1	1377	4868
1	1379	4869
1	1398	4870
1	1424	4871
1	1449	4872
1	1472	4873
1	1485	4874
1	1490	4875
1	1484	4876
1	1476	4877
1	1468	4878
1	1463	4879
1	1454	4880
1	1463	4881
1	1464	4882
1	1469	4883
1	1476	4884
1	1479	4885
1	1476	4886
1	1465	4887
1	1450	4888
1	1436	4889
1	1420	4890
1	1404	4891
1	1396	4892
1	1395	4893
1	1399	4894
1	1411	4895
1	1423	4896
1	1427	4897
1	1435	4898
1	1440	4899
1	1448	4900
1	1450	4901
1	1454	4902
1	1464	4903
1	1473	4904
1	1476	4905
1	1475	4906
1	1471	4907
1	1467	4908
1	1464	4909
1	1466	4910
1	1486	4911
1	1502	4912
1	1521	4913
1	1531	4914
1	1546	4915
1	1554	4916
1	1555	4917
1	1557	4918
1	1556	4919
1	1450	4940
1	1450	4941
1	1449	4942
1	1451	4943
1	1459	4944
1	1472	4945
1	1480	4946
1	1486	4947
1	1483	4948
1	1476	4949
1	1463	4950
1	1449	4951
1	1437	4952
1	1431	4953
1	1428	4954
1	1427	4955
1	1438	4956
1	1453	4957
1	1475	4958
1	1493	4959
1	1546	4920
1	1526	4921
1	1500	4922
1	1469	4923
1	1435	4924
1	1409	4925
1	1397	4926
1	1381	4927
1	1377	4928
1	1405	4929
1	1426	4930
1	1445	4931
1	1463	4932
1	1473	4933
1	1475	4934
1	1467	4935
1	1454	4936
1	1449	4937
1	1444	4938
1	1447	4939
1	1503	4960
1	1513	4961
1	1516	4962
1	1510	4963
1	1503	4964
1	1490	4965
1	1472	4966
1	1459	4967
1	1450	4968
1	1449	4969
1	1450	4970
1	1458	4971
1	1459	4972
1	1464	4973
1	1467	4974
1	1469	4975
1	1476	4976
1	1476	4977
1	1476	4978
1	1477	4979
1	1466	4980
1	1455	4981
1	1443	4982
1	1433	4983
1	1424	4984
1	1424	4985
1	1434	4986
1	1443	4987
1	1455	4988
1	1476	4989
1	1495	4990
1	1513	4991
1	1526	4992
1	1528	4993
1	1523	4994
1	1512	4995
1	1495	4996
1	1487	4997
1	1483	4998
1	1485	4999
1	1485	5000
1	1490	5001
1	1484	5002
1	1476	5003
1	1461	5004
1	1451	5005
1	1449	5006
1	1450	5007
1	1462	5008
1	1474	5009
1	1479	5010
1	1477	5011
1	1487	5012
1	1503	5013
1	1508	5014
1	1511	5015
1	1513	5016
1	1508	5017
1	1504	5018
1	1507	5019
1	1529	5040
1	1517	5041
1	1505	5042
1	1494	5043
1	1481	5044
1	1472	5045
1	1463	5046
1	1454	5047
1	1449	5048
1	1445	5049
1	1441	5050
1	1440	5051
1	1445	5052
1	1454	5053
1	1467	5054
1	1482	5055
1	1499	5056
1	1516	5057
1	1526	5058
1	1529	5059
1	1507	5020
1	1507	5021
1	1513	5022
1	1507	5023
1	1507	5024
1	1512	5025
1	1515	5026
1	1507	5027
1	1488	5028
1	1461	5029
1	1437	5030
1	1424	5031
1	1418	5032
1	1423	5033
1	1427	5034
1	1446	5035
1	1468	5036
1	1494	5037
1	1517	5038
1	1530	5039
1	1529	5060
1	1535	5061
1	1529	5062
1	1521	5063
1	1513	5064
1	1507	5065
1	1497	5066
1	1488	5067
1	1487	5068
1	1492	5069
1	1503	5070
1	1503	5071
1	1503	5072
1	1495	5073
1	1492	5074
1	1495	5075
1	1499	5076
1	1497	5077
1	1494	5078
1	1493	5079
1	1489	5100
1	1481	5101
1	1478	5102
1	1478	5103
1	1485	5104
1	1491	5105
1	1490	5106
1	1487	5107
1	1481	5108
1	1485	5109
1	1491	5110
1	1507	5111
1	1524	5112
1	1535	5113
1	1548	5114
1	1564	5115
1	1580	5116
1	1593	5117
1	1603	5118
1	1608	5119
1	1607	5100
1	1585	5101
1	1564	5102
1	1538	5103
1	1508	5104
1	1482	5105
1	1463	5106
1	1448	5107
1	1433	5108
1	1424	5109
1	1425	5110
1	1437	5111
1	1454	5112
1	1477	5113
1	1501	5114
1	1524	5115
1	1535	5116
1	1550	5117
1	1557	5118
1	1573	5119
1	1584	5120
1	1597	5121
1	1590	5122
1	1572	5123
1	1545	5124
1	1527	5125
1	1511	5126
1	1501	5127
1	1499	5128
1	1495	5129
1	1500	5130
1	1502	5131
1	1503	5132
1	1500	5133
1	1499	5134
1	1490	5135
1	1481	5136
1	1476	5137
1	1476	5138
1	1481	5139
1	1546	5160
1	1550	5161
1	1555	5162
1	1556	5163
1	1555	5164
1	1550	5165
1	1552	5166
1	1548	5167
1	1546	5168
1	1542	5169
1	1535	5170
1	1528	5171
1	1526	5172
1	1526	5173
1	1529	5174
1	1525	5175
1	1521	5176
1	1529	5177
1	1541	5178
1	1554	5179
1	1496	5140
1	1504	5141
1	1513	5142
1	1523	5143
1	1531	5144
1	1539	5145
1	1534	5146
1	1530	5147
1	1529	5148
1	1524	5149
1	1517	5150
1	1516	5151
1	1513	5152
1	1514	5153
1	1518	5154
1	1524	5155
1	1529	5156
1	1529	5157
1	1529	5158
1	1535	5159
1	1568	5200
1	1580	5201
1	1589	5202
1	1599	5203
1	1616	5204
1	1637	5205
1	1647	5206
1	1646	5207
1	1632	5208
1	1608	5209
1	1585	5210
1	1571	5211
1	1556	5212
1	1547	5213
1	1544	5214
1	1542	5215
1	1544	5216
1	1544	5217
1	1548	5218
1	1549	5219
1	1559	5180
1	1574	5181
1	1572	5182
1	1560	5183
1	1549	5184
1	1536	5185
1	1528	5186
1	1521	5187
1	1520	5188
1	1527	5189
1	1530	5190
1	1530	5191
1	1536	5192
1	1539	5193
1	1531	5194
1	1527	5195
1	1528	5196
1	1535	5197
1	1544	5198
1	1555	5199
1	1548	5220
1	1543	5221
1	1538	5222
1	1530	5223
1	1525	5224
1	1524	5225
1	1540	5226
1	1555	5227
1	1581	5228
1	1607	5229
1	1628	5230
1	1636	5231
1	1638	5232
1	1634	5233
1	1622	5234
1	1595	5235
1	1557	5236
1	1526	5237
1	1502	5238
1	1487	5239
1	1481	5240
1	1479	5241
1	1485	5242
1	1499	5243
1	1510	5244
1	1525	5245
1	1530	5246
1	1542	5247
1	1555	5248
1	1557	5249
1	1560	5250
1	1562	5251
1	1562	5252
1	1566	5253
1	1570	5254
1	1578	5255
1	1590	5256
1	1590	5257
1	1584	5258
1	1580	5259
1	1569	5260
1	1562	5261
1	1563	5262
1	1569	5263
1	1575	5264
1	1575	5265
1	1566	5266
1	1561	5267
1	1557	5268
1	1564	5269
1	1576	5270
1	1594	5271
1	1607	5272
1	1616	5273
1	1625	5274
1	1634	5275
1	1639	5276
1	1641	5277
1	1638	5278
1	1634	5279
1	1621	5280
1	1611	5281
1	1598	5282
1	1580	5283
1	1557	5284
1	1537	5285
1	1530	5286
1	1529	5287
1	1533	5288
1	1543	5289
1	1556	5290
1	1572	5291
1	1593	5292
1	1618	5293
1	1644	5294
1	1664	5295
1	1673	5296
1	1680	5297
1	1684	5298
1	1686	5299
1	1681	5300
1	1675	5301
1	1661	5302
1	1652	5303
1	1651	5304
1	1649	5305
1	1643	5306
1	1634	5307
1	1619	5308
1	1605	5309
1	1598	5310
1	1594	5311
1	1603	5312
1	1617	5313
1	1626	5314
1	1634	5315
1	1656	5316
1	1668	5317
1	1680	5318
1	1692	5319
1	1698	5320
1	1697	5321
1	1690	5322
1	1682	5323
1	1674	5324
1	1674	5325
1	1673	5326
1	1675	5327
1	1681	5328
1	1684	5329
1	1683	5330
1	1684	5331
1	1688	5332
1	1688	5333
1	1675	5334
1	1662	5335
1	1656	5336
1	1652	5337
1	1647	5338
1	1647	5339
1	1639	5340
1	1623	5341
1	1611	5342
1	1609	5343
1	1609	5344
1	1608	5345
1	1611	5346
1	1611	5347
1	1610	5348
1	1608	5349
1	1618	5350
1	1626	5351
1	1634	5352
1	1643	5353
1	1652	5354
1	1661	5355
1	1662	5356
1	1665	5357
1	1666	5358
1	1664	5359
1	1657	5360
1	1643	5361
1	1624	5362
1	1602	5363
1	1575	5364
1	1555	5365
1	1542	5366
1	1534	5367
1	1535	5368
1	1534	5369
1	1537	5370
1	1534	5371
1	1543	5372
1	1555	5373
1	1574	5374
1	1585	5375
1	1606	5376
1	1613	5377
1	1620	5378
1	1620	5379
1	1616	5380
1	1612	5381
1	1610	5382
1	1610	5383
1	1612	5384
1	1615	5385
1	1607	5386
1	1599	5387
1	1592	5388
1	1581	5389
1	1571	5390
1	1568	5391
1	1566	5392
1	1575	5393
1	1589	5394
1	1602	5395
1	1616	5396
1	1631	5397
1	1638	5398
1	1646	5399
1	1647	5400
1	1643	5401
1	1643	5402
1	1645	5403
1	1644	5404
1	1645	5405
1	1647	5406
1	1638	5407
1	1626	5408
1	1611	5409
1	1607	5410
1	1600	5411
1	1594	5412
1	1593	5413
1	1592	5414
1	1594	5415
1	1589	5416
1	1587	5417
1	1589	5418
1	1589	5419
1	1587	5420
1	1589	5421
1	1593	5422
1	1592	5423
1	1606	5424
1	1611	5425
1	1615	5426
1	1607	5427
1	1608	5428
1	1609	5429
1	1616	5430
1	1620	5431
1	1629	5432
1	1638	5433
1	1638	5434
1	1634	5435
1	1631	5436
1	1635	5437
1	1650	5438
1	1670	5439
1	1692	5440
1	1700	5441
1	1704	5442
1	1697	5443
1	1680	5444
1	1655	5445
1	1620	5446
1	1589	5447
1	1566	5448
1	1553	5449
1	1554	5450
1	1574	5451
1	1595	5452
1	1622	5453
1	1645	5454
1	1662	5455
1	1688	5456
1	1715	5457
1	1750	5458
1	1782	5459
1	1814	5460
1	1833	5461
1	1856	5462
1	1883	5463
1	1913	5464
1	1946	5465
1	1973	5466
1	1987	5467
1	1995	5468
1	1994	5469
1	1983	5470
1	1971	5471
1	1960	5472
1	1949	5473
1	1946	5474
1	1947	5475
1	1948	5476
1	1957	5477
1	1972	5478
1	1976	5479
1	1980	5480
1	1980	5481
1	1974	5482
1	1960	5483
1	1944	5484
1	1927	5485
1	1908	5486
1	1891	5487
1	1875	5488
1	1857	5489
1	1843	5490
1	1818	5491
1	1796	5492
1	1780	5493
1	1760	5494
1	1737	5495
1	1712	5496
1	1685	5497
1	1651	5498
1	1622	5499
1	1594	5500
1	1573	5501
1	1558	5502
1	1551	5503
1	1544	5504
1	1548	5505
1	1553	5506
1	1564	5507
1	1586	5508
1	1608	5509
1	1635	5510
1	1661	5511
1	1686	5512
1	1707	5513
1	1728	5514
1	1751	5515
1	1778	5516
1	1795	5517
1	1795	5518
1	1783	5519
1	1760	5520
1	1730	5521
1	1699	5522
1	1665	5523
1	1632	5524
1	1602	5525
1	1585	5526
1	1571	5527
1	1561	5528
1	1569	5529
1	1583	5530
1	1607	5531
1	1634	5532
1	1661	5533
1	1679	5534
1	1686	5535
1	1687	5536
1	1692	5537
1	1693	5538
1	1697	5539
1	1697	5540
1	1691	5541
1	1682	5542
1	1679	5543
1	1675	5544
1	1677	5545
1	1675	5546
1	1675	5547
1	1671	5548
1	1660	5549
1	1652	5550
1	1652	5551
1	1673	5552
1	1697	5553
1	1718	5554
1	1736	5555
1	1751	5556
1	1754	5557
1	1752	5558
1	1750	5559
1	1748	5560
1	1742	5561
1	1737	5562
1	1727	5563
1	1723	5564
1	1723	5565
1	1719	5566
1	1721	5567
1	1719	5568
1	1716	5569
1	1715	5570
1	1716	5571
1	1716	5572
1	1716	5573
1	1719	5574
1	1729	5575
1	1742	5576
1	1764	5577
1	1791	5578
1	1803	5579
1	1817	5600
1	1821	5601
1	1816	5602
1	1803	5603
1	1791	5604
1	1779	5605
1	1764	5606
1	1747	5607
1	1730	5608
1	1713	5609
1	1710	5610
1	1710	5611
1	1718	5612
1	1736	5613
1	1752	5614
1	1769	5615
1	1795	5616
1	1815	5617
1	1822	5618
1	1823	5619
1	1790	5580
1	1769	5581
1	1752	5582
1	1738	5583
1	1726	5584
1	1715	5585
1	1711	5586
1	1697	5587
1	1692	5588
1	1691	5589
1	1697	5590
1	1706	5591
1	1714	5592
1	1728	5593
1	1738	5594
1	1746	5595
1	1751	5596
1	1766	5597
1	1791	5598
1	1809	5599
1	1817	5620
1	1803	5621
1	1791	5622
1	1772	5623
1	1763	5624
1	1747	5625
1	1738	5626
1	1734	5627
1	1727	5628
1	1721	5629
1	1720	5630
1	1724	5631
1	1725	5632
1	1731	5633
1	1743	5634
1	1762	5635
1	1769	5636
1	1782	5637
1	1791	5638
1	1801	5639
1	1817	5660
1	1814	5661
1	1809	5662
1	1809	5663
1	1803	5664
1	1801	5665
1	1800	5666
1	1803	5667
1	1811	5668
1	1821	5669
1	1834	5670
1	1841	5671
1	1851	5672
1	1864	5673
1	1875	5674
1	1890	5675
1	1914	5676
1	1935	5677
1	1955	5678
1	1966	5679
1	1811	5640
1	1808	5641
1	1816	5642
1	1821	5643
1	1821	5644
1	1824	5645
1	1835	5646
1	1844	5647
1	1855	5648
1	1860	5649
1	1869	5650
1	1880	5651
1	1890	5652
1	1898	5653
1	1903	5654
1	1897	5655
1	1877	5656
1	1858	5657
1	1842	5658
1	1828	5659
1	1962	5680
1	1953	5681
1	1936	5682
1	1917	5683
1	1895	5684
1	1866	5685
1	1834	5686
1	1808	5687
1	1791	5688
1	1790	5689
1	1790	5690
1	1800	5691
1	1818	5692
1	1843	5693
1	1868	5694
1	1895	5695
1	1914	5696
1	1932	5697
1	1936	5698
1	1936	5699
1	1935	5700
1	1921	5701
1	1909	5702
1	1896	5703
1	1884	5704
1	1875	5705
1	1877	5706
1	1870	5707
1	1868	5708
1	1867	5709
1	1872	5710
1	1888	5711
1	1904	5712
1	1919	5713
1	1933	5714
1	1945	5715
1	1948	5716
1	1961	5717
1	1972	5718
1	1985	5719
1	2000	5720
1	2018	5721
1	2021	5722
1	2009	5723
1	2012	5724
1	2017	5725
1	2022	5726
1	2030	5727
1	2037	5728
1	2039	5729
1	2035	5730
1	2029	5731
1	2025	5732
1	2016	5733
1	2011	5734
1	2005	5735
1	2002	5736
1	2001	5737
1	2002	5738
1	2000	5739
1	2001	5740
1	1990	5741
1	1978	5742
1	1973	5743
1	1968	5744
1	1972	5745
1	1973	5746
1	1982	5747
1	1991	5748
1	1995	5749
1	2000	5750
1	2016	5751
1	2032	5752
1	2053	5753
1	2077	5754
1	2090	5755
1	2093	5756
1	2090	5757
1	2079	5758
1	2075	5759
1	2066	5760
1	2054	5761
1	2048	5762
1	2032	5763
1	2013	5764
1	1985	5765
1	1963	5766
1	1947	5767
1	1931	5768
1	1922	5769
1	1922	5770
1	1922	5771
1	1929	5772
1	1942	5773
1	1951	5774
1	1966	5775
1	1968	5776
1	1970	5777
1	1962	5778
1	1958	5779
1	1946	5780
1	1937	5781
1	1922	5782
1	1900	5783
1	1879	5784
1	1856	5785
1	1839	5786
1	1823	5787
1	1818	5788
1	1823	5789
1	1828	5790
1	1829	5791
1	1837	5792
1	1842	5793
1	1843	5794
1	1843	5795
1	1847	5796
1	1843	5797
1	1841	5798
1	1836	5799
1	1834	5800
1	1827	5801
1	1817	5802
1	1806	5803
1	1793	5804
1	1791	5805
1	1782	5806
1	1779	5807
1	1776	5808
1	1770	5809
1	1764	5810
1	1765	5811
1	1775	5812
1	1789	5813
1	1801	5814
1	1814	5815
1	1816	5816
1	1813	5817
1	1803	5818
1	1800	5819
1	1764	5840
1	1764	5841
1	1774	5842
1	1769	5843
1	1760	5844
1	1746	5845
1	1731	5846
1	1713	5847
1	1706	5848
1	1701	5849
1	1699	5850
1	1695	5851
1	1697	5852
1	1701	5853
1	1703	5854
1	1712	5855
1	1729	5856
1	1740	5857
1	1746	5858
1	1749	5859
1	1811	5820
1	1809	5821
1	1800	5822
1	1787	5823
1	1767	5824
1	1753	5825
1	1736	5826
1	1712	5827
1	1700	5828
1	1685	5829
1	1664	5830
1	1660	5831
1	1659	5832
1	1665	5833
1	1677	5834
1	1688	5835
1	1701	5836
1	1721	5837
1	1739	5838
1	1756	5839
1	1743	5860
1	1734	5861
1	1712	5862
1	1683	5863
1	1658	5864
1	1634	5865
1	1606	5866
1	1589	5867
1	1585	5868
1	1589	5869
1	1606	5870
1	1634	5871
1	1664	5872
1	1690	5873
1	1712	5874
1	1724	5875
1	1724	5876
1	1727	5877
1	1727	5878
1	1723	5879
1	1729	5900
1	1732	5901
1	1736	5902
1	1737	5903
1	1736	5904
1	1728	5905
1	1715	5906
1	1697	5907
1	1675	5908
1	1656	5909
1	1645	5910
1	1634	5911
1	1634	5912
1	1639	5913
1	1655	5914
1	1670	5915
1	1694	5916
1	1710	5917
1	1720	5918
1	1728	5919
1	1710	5880
1	1685	5881
1	1664	5882
1	1642	5883
1	1621	5884
1	1607	5885
1	1607	5886
1	1615	5887
1	1634	5888
1	1658	5889
1	1679	5890
1	1703	5891
1	1723	5892
1	1739	5893
1	1755	5894
1	1764	5895
1	1760	5896
1	1759	5897
1	1752	5898
1	1742	5899
1	1731	5920
1	1731	5921
1	1722	5922
1	1716	5923
1	1710	5924
1	1699	5925
1	1692	5926
1	1686	5927
1	1684	5928
1	1685	5929
1	1684	5930
1	1684	5931
1	1686	5932
1	1687	5933
1	1679	5934
1	1674	5935
1	1665	5936
1	1662	5937
1	1661	5938
1	1661	5939
1	1660	5940
1	1651	5941
1	1646	5942
1	1647	5943
1	1649	5944
1	1657	5945
1	1674	5946
1	1688	5947
1	1701	5948
1	1716	5949
1	1730	5950
1	1746	5951
1	1764	5952
1	1777	5953
1	1788	5954
1	1788	5955
1	1783	5956
1	1776	5957
1	1763	5958
1	1738	5959
1	1712	5960
1	1686	5961
1	1657	5962
1	1627	5963
1	1606	5964
1	1595	5965
1	1589	5966
1	1589	5967
1	1592	5968
1	1596	5969
1	1603	5970
1	1607	5971
1	1620	5972
1	1639	5973
1	1673	5974
1	1711	5975
1	1754	5976
1	1785	5977
1	1793	5978
1	1791	5979
1	1767	6000
1	1731	6001
1	1691	6002
1	1654	6003
1	1623	6004
1	1600	6005
1	1581	6006
1	1581	6007
1	1590	6008
1	1600	6009
1	1610	6010
1	1635	6011
1	1660	6012
1	1688	6013
1	1717	6014
1	1747	6015
1	1769	6016
1	1791	6017
1	1813	6018
1	1818	6019
1	1812	6000
1	1779	6001
1	1744	6002
1	1706	6003
1	1661	6004
1	1623	6005
1	1596	6006
1	1572	6007
1	1556	6008
1	1553	6009
1	1555	6010
1	1559	6011
1	1574	6012
1	1595	6013
1	1625	6014
1	1647	6015
1	1661	6016
1	1688	6017
1	1714	6018
1	1731	6019
1	1737	6020
1	1738	6021
1	1724	6022
1	1701	6023
1	1688	6024
1	1679	6025
1	1669	6026
1	1658	6027
1	1660	6028
1	1667	6029
1	1682	6030
1	1692	6031
1	1710	6032
1	1723	6033
1	1729	6034
1	1725	6035
1	1713	6036
1	1703	6037
1	1697	6038
1	1686	6039
1	1690	6040
1	1685	6041
1	1681	6042
1	1667	6043
1	1657	6044
1	1647	6045
1	1636	6046
1	1626	6047
1	1621	6048
1	1622	6049
1	1628	6050
1	1643	6051
1	1658	6052
1	1674	6053
1	1684	6054
1	1686	6055
1	1686	6056
1	1691	6057
1	1700	6058
1	1715	6059
1	1724	6060
1	1713	6061
1	1704	6062
1	1690	6063
1	1678	6064
1	1665	6065
1	1661	6066
1	1647	6067
1	1635	6068
1	1625	6069
1	1615	6070
1	1607	6071
1	1611	6072
1	1622	6073
1	1638	6074
1	1658	6075
1	1668	6076
1	1686	6077
1	1699	6078
1	1712	6079
1	1720	6080
1	1730	6081
1	1724	6082
1	1712	6083
1	1699	6084
1	1686	6085
1	1672	6086
1	1660	6087
1	1644	6088
1	1625	6089
1	1613	6090
1	1603	6091
1	1603	6092
1	1611	6093
1	1625	6094
1	1642	6095
1	1662	6096
1	1680	6097
1	1688	6098
1	1699	6099
1	1709	6100
1	1712	6101
1	1721	6102
1	1719	6103
1	1712	6104
1	1699	6105
1	1683	6106
1	1669	6107
1	1661	6108
1	1654	6109
1	1647	6110
1	1648	6111
1	1649	6112
1	1660	6113
1	1674	6114
1	1687	6115
1	1698	6116
1	1698	6117
1	1693	6118
1	1686	6119
1	1680	6120
1	1671	6121
1	1665	6122
1	1662	6123
1	1660	6124
1	1657	6125
1	1656	6126
1	1647	6127
1	1639	6128
1	1625	6129
1	1608	6130
1	1612	6131
1	1623	6132
1	1634	6133
1	1645	6134
1	1659	6135
1	1664	6136
1	1668	6137
1	1673	6138
1	1674	6139
1	1670	6140
1	1666	6141
1	1669	6142
1	1661	6143
1	1659	6144
1	1657	6145
1	1658	6146
1	1657	6147
1	1660	6148
1	1662	6149
1	1668	6150
1	1671	6151
1	1685	6152
1	1700	6153
1	1718	6154
1	1733	6155
1	1752	6156
1	1766	6157
1	1782	6158
1	1791	6159
1	1791	6160
1	1790	6161
1	1770	6162
1	1740	6163
1	1707	6164
1	1678	6165
1	1647	6166
1	1628	6167
1	1610	6168
1	1597	6169
1	1586	6170
1	1589	6171
1	1594	6172
1	1605	6173
1	1618	6174
1	1634	6175
1	1648	6176
1	1664	6177
1	1682	6178
1	1698	6179
1	1719	6180
1	1733	6181
1	1741	6182
1	1746	6183
1	1739	6184
1	1721	6185
1	1705	6186
1	1686	6187
1	1673	6188
1	1658	6189
1	1635	6190
1	1625	6191
1	1619	6192
1	1623	6193
1	1633	6194
1	1647	6195
1	1658	6196
1	1673	6197
1	1688	6198
1	1704	6199
1	1712	6200
1	1722	6201
1	1721	6202
1	1719	6203
1	1718	6204
1	1718	6205
1	1715	6206
1	1707	6207
1	1700	6208
1	1695	6209
1	1685	6210
1	1669	6211
1	1664	6212
1	1665	6213
1	1664	6214
1	1660	6215
1	1662	6216
1	1670	6217
1	1686	6218
1	1703	6219
1	1676	6240
1	1677	6241
1	1683	6242
1	1685	6243
1	1685	6244
1	1681	6245
1	1674	6246
1	1656	6247
1	1636	6248
1	1623	6249
1	1613	6250
1	1615	6251
1	1629	6252
1	1647	6253
1	1665	6254
1	1685	6255
1	1697	6256
1	1712	6257
1	1726	6258
1	1738	6259
1	1711	6220
1	1706	6221
1	1693	6222
1	1684	6223
1	1675	6224
1	1673	6225
1	1671	6226
1	1669	6227
1	1662	6228
1	1656	6229
1	1647	6230
1	1647	6231
1	1647	6232
1	1649	6233
1	1650	6234
1	1659	6235
1	1660	6236
1	1660	6237
1	1664	6238
1	1667	6239
1	1750	6260
1	1760	6261
1	1751	6262
1	1730	6263
1	1703	6264
1	1674	6265
1	1649	6266
1	1626	6267
1	1610	6268
1	1607	6269
1	1611	6270
1	1625	6271
1	1643	6272
1	1661	6273
1	1675	6274
1	1686	6275
1	1701	6276
1	1715	6277
1	1729	6278
1	1738	6279
1	1737	6280
1	1728	6281
1	1715	6282
1	1710	6283
1	1704	6284
1	1701	6285
1	1692	6286
1	1688	6287
1	1688	6288
1	1685	6289
1	1674	6290
1	1670	6291
1	1665	6292
1	1664	6293
1	1667	6294
1	1674	6295
1	1681	6296
1	1687	6297
1	1688	6298
1	1688	6299
1	1688	6300
1	1683	6301
1	1686	6302
1	1687	6303
1	1687	6304
1	1682	6305
1	1686	6306
1	1687	6307
1	1697	6308
1	1702	6309
1	1709	6310
1	1713	6311
1	1719	6312
1	1730	6313
1	1738	6314
1	1740	6315
1	1737	6316
1	1728	6317
1	1723	6318
1	1715	6319
1	1711	6320
1	1708	6321
1	1702	6322
1	1701	6323
1	1719	6324
1	1728	6325
1	1737	6326
1	1743	6327
1	1751	6328
1	1763	6329
1	1772	6330
1	1784	6331
1	1791	6332
1	1799	6333
1	1811	6334
1	1817	6335
1	1820	6336
1	1817	6337
1	1791	6338
1	1775	6339
1	1764	6340
1	1740	6341
1	1717	6342
1	1698	6343
1	1682	6344
1	1665	6345
1	1651	6346
1	1647	6347
1	1654	6348
1	1657	6349
1	1659	6350
1	1665	6351
1	1667	6352
1	1670	6353
1	1676	6354
1	1686	6355
1	1688	6356
1	1697	6357
1	1708	6358
1	1718	6359
1	1734	6360
1	1738	6361
1	1738	6362
1	1733	6363
1	1723	6364
1	1712	6365
1	1710	6366
1	1687	6367
1	1660	6368
1	1634	6369
1	1620	6370
1	1620	6371
1	1620	6372
1	1612	6373
1	1605	6374
1	1593	6375
1	1579	6376
1	1576	6377
1	1581	6378
1	1585	6379
1	1587	6380
1	1598	6381
1	1603	6382
1	1612	6383
1	1625	6384
1	1634	6385
1	1638	6386
1	1633	6387
1	1625	6388
1	1619	6389
1	1607	6390
1	1597	6391
1	1598	6392
1	1607	6393
1	1618	6394
1	1634	6395
1	1652	6396
1	1670	6397
1	1686	6398
1	1699	6399
1	1703	6400
1	1699	6401
1	1690	6402
1	1680	6403
1	1665	6404
1	1656	6405
1	1644	6406
1	1634	6407
1	1634	6408
1	1633	6409
1	1632	6410
1	1638	6411
1	1646	6412
1	1648	6413
1	1647	6414
1	1644	6415
1	1643	6416
1	1639	6417
1	1634	6418
1	1633	6419
1	1625	6440
1	1618	6441
1	1619	6442
1	1616	6443
1	1618	6444
1	1623	6445
1	1625	6446
1	1618	6447
1	1598	6448
1	1582	6449
1	1580	6450
1	1581	6451
1	1596	6452
1	1613	6453
1	1626	6454
1	1643	6455
1	1666	6456
1	1685	6457
1	1703	6458
1	1724	6459
1	1629	6420
1	1616	6421
1	1607	6422
1	1600	6423
1	1596	6424
1	1599	6425
1	1602	6426
1	1607	6427
1	1613	6428
1	1628	6429
1	1634	6430
1	1629	6431
1	1634	6432
1	1634	6433
1	1638	6434
1	1641	6435
1	1642	6436
1	1638	6437
1	1633	6438
1	1629	6439
1	1742	6460
1	1758	6461
1	1776	6462
1	1791	6463
1	1809	6464
1	1832	6465
1	1851	6466
1	1870	6467
1	1895	6468
1	1906	6469
1	1919	6470
1	1931	6471
1	1933	6472
1	1931	6473
1	1922	6474
1	1909	6475
1	1900	6476
1	1899	6477
1	1909	6478
1	1926	6479
1	1948	6480
1	1955	6481
1	1950	6482
1	1936	6483
1	1919	6484
1	1895	6485
1	1885	6486
1	1860	6487
1	1841	6488
1	1817	6489
1	1795	6490
1	1782	6491
1	1773	6492
1	1772	6493
1	1764	6494
1	1751	6495
1	1723	6496
1	1697	6497
1	1671	6498
1	1649	6499
1	1622	6500
1	1596	6501
1	1567	6502
1	1539	6503
1	1508	6504
1	1485	6505
1	1476	6506
1	1472	6507
1	1472	6508
1	1482	6509
1	1504	6510
1	1531	6511
1	1566	6512
1	1606	6513
1	1634	6514
1	1647	6515
1	1657	6516
1	1652	6517
1	1646	6518
1	1633	6519
1	1681	6540
1	1665	6541
1	1657	6542
1	1649	6543
1	1638	6544
1	1628	6545
1	1620	6546
1	1604	6547
1	1586	6548
1	1579	6549
1	1574	6550
1	1582	6551
1	1594	6552
1	1607	6553
1	1626	6554
1	1646	6555
1	1660	6556
1	1683	6557
1	1700	6558
1	1711	6559
1	1625	6520
1	1618	6521
1	1607	6522
1	1589	6523
1	1583	6524
1	1582	6525
1	1582	6526
1	1582	6527
1	1579	6528
1	1569	6529
1	1557	6530
1	1554	6531
1	1554	6532
1	1565	6533
1	1581	6534
1	1607	6535
1	1633	6536
1	1656	6537
1	1672	6538
1	1682	6539
1	1660	6580
1	1661	6581
1	1660	6582
1	1659	6583
1	1656	6584
1	1651	6585
1	1649	6586
1	1647	6587
1	1638	6588
1	1631	6589
1	1621	6590
1	1622	6591
1	1622	6592
1	1629	6593
1	1639	6594
1	1656	6595
1	1660	6596
1	1665	6597
1	1674	6598
1	1687	6599
1	1717	6560
1	1728	6561
1	1724	6562
1	1713	6563
1	1701	6564
1	1686	6565
1	1668	6566
1	1656	6567
1	1646	6568
1	1643	6569
1	1643	6570
1	1639	6571
1	1646	6572
1	1647	6573
1	1645	6574
1	1641	6575
1	1647	6576
1	1652	6577
1	1656	6578
1	1661	6579
1	1699	6600
1	1698	6601
1	1704	6602
1	1704	6603
1	1690	6604
1	1667	6605
1	1652	6606
1	1629	6607
1	1609	6608
1	1598	6609
1	1594	6610
1	1596	6611
1	1599	6612
1	1602	6613
1	1602	6614
1	1607	6615
1	1607	6616
1	1611	6617
1	1618	6618
1	1632	6619
1	1651	6620
1	1675	6621
1	1688	6622
1	1694	6623
1	1710	6624
1	1712	6625
1	1712	6626
1	1698	6627
1	1686	6628
1	1672	6629
1	1656	6630
1	1645	6631
1	1634	6632
1	1634	6633
1	1638	6634
1	1649	6635
1	1662	6636
1	1680	6637
1	1705	6638
1	1728	6639
1	1754	6640
1	1764	6641
1	1768	6642
1	1763	6643
1	1751	6644
1	1738	6645
1	1715	6646
1	1694	6647
1	1671	6648
1	1656	6649
1	1647	6650
1	1652	6651
1	1664	6652
1	1683	6653
1	1697	6654
1	1716	6655
1	1728	6656
1	1738	6657
1	1739	6658
1	1735	6659
1	1724	6660
1	1701	6661
1	1684	6662
1	1661	6663
1	1643	6664
1	1633	6665
1	1631	6666
1	1631	6667
1	1639	6668
1	1655	6669
1	1671	6670
1	1692	6671
1	1713	6672
1	1737	6673
1	1751	6674
1	1764	6675
1	1756	6676
1	1747	6677
1	1737	6678
1	1714	6679
1	1699	6680
1	1687	6681
1	1673	6682
1	1655	6683
1	1639	6684
1	1634	6685
1	1631	6686
1	1628	6687
1	1632	6688
1	1634	6689
1	1638	6690
1	1646	6691
1	1656	6692
1	1674	6693
1	1690	6694
1	1717	6695
1	1749	6696
1	1772	6697
1	1798	6698
1	1822	6699
1	1836	6700
1	1842	6701
1	1839	6702
1	1822	6703
1	1803	6704
1	1785	6705
1	1764	6706
1	1752	6707
1	1749	6708
1	1748	6709
1	1742	6710
1	1744	6711
1	1739	6712
1	1742	6713
1	1752	6714
1	1762	6715
1	1773	6716
1	1787	6717
1	1808	6718
1	1824	6719
1	1760	6740
1	1755	6741
1	1765	6742
1	1773	6743
1	1782	6744
1	1795	6745
1	1817	6746
1	1843	6747
1	1869	6748
1	1888	6749
1	1891	6750
1	1877	6751
1	1872	6752
1	1879	6753
1	1881	6754
1	1878	6755
1	1886	6756
1	1885	6757
1	1879	6758
1	1868	6759
1	1841	6720
1	1845	6721
1	1852	6722
1	1846	6723
1	1837	6724
1	1821	6725
1	1812	6726
1	1799	6727
1	1791	6728
1	1799	6729
1	1795	6730
1	1787	6731
1	1780	6732
1	1775	6733
1	1776	6734
1	1781	6735
1	1778	6736
1	1777	6737
1	1769	6738
1	1764	6739
1	1854	6760
1	1841	6761
1	1823	6762
1	1802	6763
1	1782	6764
1	1762	6765
1	1741	6766
1	1729	6767
1	1715	6768
1	1708	6769
1	1698	6770
1	1704	6771
1	1711	6772
1	1717	6773
1	1720	6774
1	1728	6775
1	1735	6776
1	1742	6777
1	1758	6778
1	1772	6779
1	1783	6780
1	1783	6781
1	1782	6782
1	1773	6783
1	1760	6784
1	1746	6785
1	1738	6786
1	1725	6787
1	1712	6788
1	1705	6789
1	1701	6790
1	1703	6791
1	1710	6792
1	1711	6793
1	1710	6794
1	1704	6795
1	1688	6796
1	1674	6797
1	1657	6798
1	1651	6799
1	1644	6800
1	1641	6801
1	1641	6802
1	1647	6803
1	1659	6804
1	1664	6805
1	1673	6806
1	1669	6807
1	1660	6808
1	1646	6809
1	1625	6810
1	1605	6811
1	1581	6812
1	1559	6813
1	1546	6814
1	1539	6815
1	1538	6816
1	1530	6817
1	1526	6818
1	1521	6819
1	1518	6820
1	1514	6821
1	1511	6822
1	1515	6823
1	1521	6824
1	1526	6825
1	1529	6826
1	1539	6827
1	1543	6828
1	1546	6829
1	1544	6830
1	1542	6831
1	1540	6832
1	1539	6833
1	1539	6834
1	1547	6835
1	1550	6836
1	1555	6837
1	1555	6838
1	1555	6839
1	1555	6860
1	1553	6861
1	1550	6862
1	1549	6863
1	1549	6864
1	1548	6865
1	1555	6866
1	1555	6867
1	1557	6868
1	1555	6869
1	1553	6870
1	1544	6871
1	1535	6872
1	1529	6873
1	1525	6874
1	1520	6875
1	1513	6876
1	1516	6877
1	1524	6878
1	1532	6879
1	1625	6880
1	1602	6881
1	1578	6882
1	1544	6883
1	1514	6884
1	1489	6885
1	1467	6886
1	1450	6887
1	1436	6888
1	1422	6889
1	1422	6890
1	1437	6891
1	1458	6892
1	1481	6893
1	1504	6894
1	1529	6895
1	1550	6896
1	1571	6897
1	1589	6898
1	1605	6899
1	1613	6900
1	1612	6901
1	1613	6902
1	1616	6903
1	1612	6904
1	1610	6905
1	1611	6906
1	1606	6907
1	1595	6908
1	1589	6909
1	1575	6910
1	1566	6911
1	1567	6912
1	1574	6913
1	1581	6914
1	1586	6915
1	1592	6916
1	1603	6917
1	1608	6918
1	1607	6919
1	1544	6880
1	1559	6881
1	1569	6882
1	1572	6883
1	1567	6884
1	1561	6885
1	1555	6886
1	1544	6887
1	1530	6888
1	1517	6889
1	1510	6890
1	1507	6891
1	1519	6892
1	1540	6893
1	1559	6894
1	1585	6895
1	1615	6896
1	1634	6897
1	1643	6898
1	1638	6899
1	1647	6940
1	1652	6941
1	1657	6942
1	1656	6943
1	1647	6944
1	1628	6945
1	1598	6946
1	1571	6947
1	1555	6948
1	1548	6949
1	1550	6950
1	1557	6951
1	1566	6952
1	1573	6953
1	1581	6954
1	1589	6955
1	1605	6956
1	1622	6957
1	1638	6958
1	1646	6959
1	1603	6920
1	1592	6921
1	1564	6922
1	1530	6923
1	1512	6924
1	1477	6925
1	1458	6926
1	1440	6927
1	1432	6928
1	1433	6929
1	1443	6930
1	1461	6931
1	1490	6932
1	1523	6933
1	1546	6934
1	1569	6935
1	1593	6936
1	1611	6937
1	1631	6938
1	1636	6939
1	1701	6980
1	1711	6981
1	1710	6982
1	1697	6983
1	1690	6984
1	1672	6985
1	1651	6986
1	1627	6987
1	1605	6988
1	1594	6989
1	1593	6990
1	1600	6991
1	1620	6992
1	1639	6993
1	1660	6994
1	1674	6995
1	1682	6996
1	1674	6997
1	1656	6998
1	1633	6999
1	1647	6960
1	1638	6961
1	1620	6962
1	1599	6963
1	1577	6964
1	1556	6965
1	1547	6966
1	1534	6967
1	1521	6968
1	1515	6969
1	1515	6970
1	1529	6971
1	1549	6972
1	1573	6973
1	1602	6974
1	1628	6975
1	1638	6976
1	1657	6977
1	1676	6978
1	1690	6979
1	1607	7000
1	1585	7001
1	1567	7002
1	1554	7003
1	1545	7004
1	1541	7005
1	1530	7006
1	1527	7007
1	1529	7008
1	1540	7009
1	1554	7010
1	1581	7011
1	1603	7012
1	1626	7013
1	1651	7014
1	1677	7015
1	1694	7016
1	1708	7017
1	1715	7018
1	1720	7019
1	1659	7040
1	1654	7041
1	1647	7042
1	1642	7043
1	1643	7044
1	1646	7045
1	1651	7046
1	1652	7047
1	1656	7048
1	1661	7049
1	1662	7050
1	1655	7051
1	1643	7052
1	1634	7053
1	1625	7054
1	1620	7055
1	1623	7056
1	1623	7057
1	1622	7058
1	1626	7059
1	1724	7020
1	1719	7021
1	1715	7022
1	1707	7023
1	1691	7024
1	1678	7025
1	1662	7026
1	1651	7027
1	1628	7028
1	1612	7029
1	1593	7030
1	1582	7031
1	1585	7032
1	1603	7033
1	1624	7034
1	1642	7035
1	1644	7036
1	1644	7037
1	1648	7038
1	1656	7039
1	1635	7060
1	1651	7061
1	1665	7062
1	1678	7063
1	1685	7064
1	1687	7065
1	1688	7066
1	1688	7067
1	1694	7068
1	1700	7069
1	1703	7070
1	1712	7071
1	1720	7072
1	1733	7073
1	1747	7074
1	1753	7075
1	1746	7076
1	1733	7077
1	1716	7078
1	1704	7079
1	1688	7080
1	1665	7081
1	1647	7082
1	1630	7083
1	1618	7084
1	1625	7085
1	1620	7086
1	1634	7087
1	1643	7088
1	1655	7089
1	1661	7090
1	1667	7091
1	1669	7092
1	1674	7093
1	1684	7094
1	1691	7095
1	1691	7096
1	1703	7097
1	1721	7098
1	1733	7099
1	1738	7100
1	1738	7101
1	1734	7102
1	1730	7103
1	1729	7104
1	1727	7105
1	1725	7106
1	1715	7107
1	1710	7108
1	1695	7109
1	1678	7110
1	1660	7111
1	1659	7112
1	1662	7113
1	1672	7114
1	1684	7115
1	1700	7116
1	1712	7117
1	1724	7118
1	1734	7119
1	1737	7120
1	1733	7121
1	1724	7122
1	1726	7123
1	1730	7124
1	1734	7125
1	1737	7126
1	1730	7127
1	1715	7128
1	1705	7129
1	1695	7130
1	1681	7131
1	1662	7132
1	1651	7133
1	1643	7134
1	1651	7135
1	1661	7136
1	1670	7137
1	1672	7138
1	1675	7139
1	1675	7140
1	1669	7141
1	1672	7142
1	1682	7143
1	1690	7144
1	1708	7145
1	1733	7146
1	1747	7147
1	1756	7148
1	1760	7149
1	1756	7150
1	1752	7151
1	1752	7152
1	1753	7153
1	1755	7154
1	1759	7155
1	1764	7156
1	1777	7157
1	1783	7158
1	1785	7159
1	1782	7180
1	1783	7181
1	1773	7182
1	1764	7183
1	1751	7184
1	1741	7185
1	1738	7186
1	1737	7187
1	1737	7188
1	1738	7189
1	1746	7190
1	1742	7191
1	1738	7192
1	1738	7193
1	1742	7194
1	1752	7195
1	1764	7196
1	1782	7197
1	1803	7198
1	1826	7199
1	1843	7180
1	1843	7181
1	1828	7182
1	1816	7183
1	1796	7184
1	1782	7185
1	1766	7186
1	1754	7187
1	1736	7188
1	1715	7189
1	1711	7190
1	1701	7191
1	1700	7192
1	1694	7193
1	1691	7194
1	1701	7195
1	1718	7196
1	1738	7197
1	1754	7198
1	1762	7199
1	1764	7200
1	1762	7201
1	1764	7202
1	1765	7203
1	1769	7204
1	1769	7205
1	1780	7206
1	1782	7207
1	1791	7208
1	1815	7209
1	1834	7210
1	1853	7211
1	1861	7212
1	1868	7213
1	1865	7214
1	1862	7215
1	1848	7216
1	1834	7217
1	1816	7218
1	1790	7219
1	1769	7220
1	1760	7221
1	1751	7222
1	1738	7223
1	1742	7224
1	1731	7225
1	1724	7226
1	1715	7227
1	1718	7228
1	1734	7229
1	1741	7230
1	1751	7231
1	1757	7232
1	1763	7233
1	1767	7234
1	1776	7235
1	1783	7236
1	1793	7237
1	1809	7238
1	1818	7239
1	1865	7260
1	1869	7261
1	1867	7262
1	1857	7263
1	1843	7264
1	1828	7265
1	1820	7266
1	1803	7267
1	1790	7268
1	1776	7269
1	1772	7270
1	1783	7271
1	1792	7272
1	1803	7273
1	1817	7274
1	1826	7275
1	1831	7276
1	1838	7277
1	1852	7278
1	1854	7279
1	1836	7240
1	1837	7241
1	1830	7242
1	1818	7243
1	1807	7244
1	1792	7245
1	1782	7246
1	1778	7247
1	1767	7248
1	1760	7249
1	1742	7250
1	1737	7251
1	1734	7252
1	1737	7253
1	1746	7254
1	1755	7255
1	1765	7256
1	1790	7257
1	1819	7258
1	1848	7259
1	1859	7280
1	1877	7281
1	1887	7282
1	1894	7283
1	1891	7284
1	1890	7285
1	1883	7286
1	1875	7287
1	1872	7288
1	1872	7289
1	1869	7290
1	1859	7291
1	1862	7292
1	1870	7293
1	1886	7294
1	1908	7295
1	1947	7296
1	1974	7297
1	2003	7298
1	2024	7299
1	2030	7300
1	2029	7301
1	2025	7302
1	2019	7303
1	2015	7304
1	2015	7305
1	2012	7306
1	2004	7307
1	2000	7308
1	2000	7309
1	2004	7310
1	2016	7311
1	2022	7312
1	2025	7313
1	2025	7314
1	2026	7315
1	2026	7316
1	2026	7317
1	2026	7318
1	2021	7319
1	2006	7340
1	1983	7341
1	1965	7342
1	1948	7343
1	1937	7344
1	1926	7345
1	1922	7346
1	1909	7347
1	1910	7348
1	1906	7349
1	1897	7350
1	1906	7351
1	1906	7352
1	1913	7353
1	1926	7354
1	1943	7355
1	1948	7356
1	1964	7357
1	1977	7358
1	1981	7359
1	1972	7340
1	1948	7341
1	1922	7342
1	1891	7343
1	1867	7344
1	1854	7345
1	1852	7346
1	1851	7347
1	1855	7348
1	1860	7349
1	1868	7350
1	1860	7351
1	1860	7352
1	1867	7353
1	1872	7354
1	1880	7355
1	1893	7356
1	1895	7357
1	1895	7358
1	1892	7359
1	1888	7360
1	1886	7361
1	1888	7362
1	1886	7363
1	1873	7364
1	1854	7365
1	1824	7366
1	1796	7367
1	1780	7368
1	1767	7369
1	1773	7370
1	1791	7371
1	1809	7372
1	1821	7373
1	1837	7374
1	1853	7375
1	1866	7376
1	1874	7377
1	1890	7378
1	1900	7379
1	1922	7400
1	1912	7401
1	1899	7402
1	1891	7403
1	1886	7404
1	1888	7405
1	1891	7406
1	1895	7407
1	1897	7408
1	1901	7409
1	1907	7410
1	1904	7411
1	1908	7412
1	1914	7413
1	1919	7414
1	1926	7415
1	1946	7416
1	1953	7417
1	1965	7418
1	1975	7419
1	1900	7380
1	1899	7381
1	1894	7382
1	1881	7383
1	1869	7384
1	1859	7385
1	1859	7386
1	1859	7387
1	1862	7388
1	1869	7389
1	1881	7390
1	1890	7391
1	1895	7392
1	1904	7393
1	1914	7394
1	1923	7395
1	1927	7396
1	1933	7397
1	1936	7398
1	1934	7399
1	1986	7420
1	1994	7421
1	1993	7422
1	1995	7423
1	1998	7424
1	1999	7425
1	2002	7426
1	2005	7427
1	2014	7428
1	2025	7429
1	2034	7430
1	2050	7431
1	2067	7432
1	2093	7433
1	2127	7434
1	2170	7435
1	2205	7436
1	2237	7437
1	2265	7438
1	2286	7439
1	2293	7440
1	2289	7441
1	2288	7442
1	2288	7443
1	2286	7444
1	2277	7445
1	2274	7446
1	2258	7447
1	2231	7448
1	2197	7449
1	2173	7450
1	2157	7451
1	2150	7452
1	2148	7453
1	2154	7454
1	2161	7455
1	2158	7456
1	2152	7457
1	2135	7458
1	2112	7459
1	2075	7460
1	2042	7461
1	2000	7462
1	1960	7463
1	1919	7464
1	1878	7465
1	1844	7466
1	1817	7467
1	1791	7468
1	1787	7469
1	1787	7470
1	1791	7471
1	1813	7472
1	1841	7473
1	1878	7474
1	1925	7475
1	1975	7476
1	2012	7477
1	2039	7478
1	2055	7479
1	2054	7480
1	2038	7481
1	2013	7482
1	1985	7483
1	1951	7484
1	1926	7485
1	1903	7486
1	1886	7487
1	1873	7488
1	1869	7489
1	1868	7490
1	1877	7491
1	1890	7492
1	1898	7493
1	1907	7494
1	1909	7495
1	1916	7496
1	1923	7497
1	1936	7498
1	1954	7499
1	1974	7500
1	1988	7501
1	2001	7502
1	2019	7503
1	2028	7504
1	2034	7505
1	2039	7506
1	2031	7507
1	2025	7508
1	2014	7509
1	2002	7510
1	1990	7511
1	1978	7512
1	1969	7513
1	1962	7514
1	1959	7515
1	1949	7516
1	1940	7517
1	1938	7518
1	1940	7519
1	1943	7520
1	1953	7521
1	1957	7522
1	1953	7523
1	1965	7524
1	1962	7525
1	1963	7526
1	1962	7527
1	1962	7528
1	1964	7529
1	1969	7530
1	1974	7531
1	1974	7532
1	1972	7533
1	1975	7534
1	1976	7535
1	1986	7536
1	2000	7537
1	2009	7538
1	2012	7539
1	2070	7560
1	2065	7561
1	2058	7562
1	2053	7563
1	2053	7564
1	2052	7565
1	2061	7566
1	2060	7567
1	2052	7568
1	2045	7569
1	2032	7570
1	2017	7571
1	2001	7572
1	1988	7573
1	1981	7574
1	1982	7575
1	1983	7576
1	1998	7577
1	2012	7578
1	2032	7579
1	2131	7600
1	2156	7601
1	2168	7602
1	2171	7603
1	2161	7604
1	2144	7605
1	2106	7606
1	2070	7607
1	2039	7608
1	2009	7609
1	1983	7610
1	1974	7611
1	1968	7612
1	1971	7613
1	1974	7614
1	1975	7615
1	1975	7616
1	1976	7617
1	1988	7618
1	2000	7619
1	2048	7580
1	2061	7581
1	2065	7582
1	2065	7583
1	2053	7584
1	2050	7585
1	2048	7586
1	2053	7587
1	2064	7588
1	2075	7589
1	2070	7590
1	2055	7591
1	2048	7592
1	2040	7593
1	2037	7594
1	2035	7595
1	2043	7596
1	2053	7597
1	2077	7598
1	2102	7599
1	2015	7540
1	2003	7541
1	1991	7542
1	1981	7543
1	1976	7544
1	1978	7545
1	1973	7546
1	1975	7547
1	1980	7548
1	1988	7549
1	1998	7550
1	2006	7551
1	2013	7552
1	2018	7553
1	2024	7554
1	2028	7555
1	2039	7556
1	2048	7557
1	2056	7558
1	2064	7559
1	2014	7620
1	2026	7621
1	2037	7622
1	2050	7623
1	2065	7624
1	2079	7625
1	2097	7626
1	2112	7627
1	2131	7628
1	2157	7629
1	2173	7630
1	2188	7631
1	2199	7632
1	2202	7633
1	2204	7634
1	2204	7635
1	2187	7636
1	2174	7637
1	2163	7638
1	2154	7639
1	2147	7640
1	2143	7641
1	2142	7642
1	2131	7643
1	2123	7644
1	2120	7645
1	2118	7646
1	2117	7647
1	2111	7648
1	2105	7649
1	2097	7650
1	2076	7651
1	2061	7652
1	2052	7653
1	2053	7654
1	2064	7655
1	2086	7656
1	2106	7657
1	2132	7658
1	2161	7659
1	2182	7660
1	2195	7661
1	2210	7662
1	2230	7663
1	2243	7664
1	2254	7665
1	2255	7666
1	2261	7667
1	2263	7668
1	2257	7669
1	2238	7670
1	2232	7671
1	2210	7672
1	2202	7673
1	2201	7674
1	2200	7675
1	2201	7676
1	2205	7677
1	2210	7678
1	2215	7679
1	2219	7680
1	2222	7681
1	2231	7682
1	2232	7683
1	2233	7684
1	2233	7685
1	2235	7686
1	2228	7687
1	2221	7688
1	2220	7689
1	2217	7690
1	2216	7691
1	2215	7692
1	2213	7693
1	2214	7694
1	2218	7695
1	2221	7696
1	2236	7697
1	2253	7698
1	2266	7699
1	2273	7700
1	2282	7701
1	2286	7702
1	2287	7703
1	2287	7704
1	2287	7705
1	2281	7706
1	2279	7707
1	2277	7708
1	2274	7709
1	2268	7710
1	2246	7711
1	2222	7712
1	2215	7713
1	2210	7714
1	2210	7715
1	2219	7716
1	2222	7717
1	2237	7718
1	2251	7719
1	2260	7720
1	2261	7721
1	2254	7722
1	2253	7723
1	2250	7724
1	2245	7725
1	2237	7726
1	2236	7727
1	2233	7728
1	2228	7729
1	2228	7730
1	2237	7731
1	2260	7732
1	2279	7733
1	2304	7734
1	2332	7735
1	2350	7736
1	2358	7737
1	2361	7738
1	2359	7739
1	2354	7740
1	2338	7741
1	2318	7742
1	2296	7743
1	2273	7744
1	2248	7745
1	2233	7746
1	2206	7747
1	2173	7748
1	2149	7749
1	2131	7750
1	2122	7751
1	2122	7752
1	2131	7753
1	2150	7754
1	2170	7755
1	2176	7756
1	2181	7757
1	2179	7758
1	2168	7759
1	2079	7780
1	2076	7781
1	2070	7782
1	2064	7783
1	2052	7784
1	2030	7785
1	2004	7786
1	1979	7787
1	1953	7788
1	1935	7789
1	1920	7790
1	1917	7791
1	1921	7792
1	1927	7793
1	1937	7794
1	1940	7795
1	1940	7796
1	1948	7797
1	1956	7798
1	1969	7799
1	2148	7760
1	2133	7761
1	2111	7762
1	2093	7763
1	2070	7764
1	2052	7765
1	2030	7766
1	2013	7767
1	1997	7768
1	1984	7769
1	1974	7770
1	1968	7771
1	1974	7772
1	1988	7773
1	2000	7774
1	2013	7775
1	2032	7776
1	2052	7777
1	2069	7778
1	2081	7779
1	1975	7800
1	1974	7801
1	1966	7802
1	1958	7803
1	1949	7804
1	1948	7805
1	1961	7806
1	1971	7807
1	1985	7808
1	1989	7809
1	1987	7810
1	1981	7811
1	1974	7812
1	1970	7813
1	1971	7814
1	1971	7815
1	1965	7816
1	1969	7817
1	1973	7818
1	1975	7819
1	1980	7820
1	1992	7821
1	1997	7822
1	1998	7823
1	2008	7824
1	2004	7825
1	2000	7826
1	1983	7827
1	1958	7828
1	1935	7829
1	1911	7830
1	1891	7831
1	1873	7832
1	1860	7833
1	1854	7834
1	1856	7835
1	1867	7836
1	1883	7837
1	1899	7838
1	1918	7839
1	1935	7840
1	1950	7841
1	1969	7842
1	1985	7843
1	1999	7844
1	1999	7845
1	1987	7846
1	1980	7847
1	1976	7848
1	1980	7849
1	1985	7850
1	1988	7851
1	1993	7852
1	1974	7853
1	1966	7854
1	1965	7855
1	1963	7856
1	1965	7857
1	1974	7858
1	1981	7859
1	1986	7860
1	1975	7861
1	1969	7862
1	1961	7863
1	1950	7864
1	1937	7865
1	1924	7866
1	1917	7867
1	1917	7868
1	1924	7869
1	1929	7870
1	1931	7871
1	1926	7872
1	1927	7873
1	1927	7874
1	1927	7875
1	1925	7876
1	1926	7877
1	1929	7878
1	1935	7879
1	1935	7880
1	1948	7881
1	1956	7882
1	1961	7883
1	1961	7884
1	1961	7885
1	1951	7886
1	1939	7887
1	1919	7888
1	1908	7889
1	1909	7890
1	1908	7891
1	1916	7892
1	1926	7893
1	1944	7894
1	1954	7895
1	1975	7896
1	1986	7897
1	1998	7898
1	2004	7899
1	2011	7900
1	2006	7901
1	1997	7902
1	1974	7903
1	1952	7904
1	1933	7905
1	1906	7906
1	1888	7907
1	1873	7908
1	1869	7909
1	1864	7910
1	1865	7911
1	1870	7912
1	1877	7913
1	1892	7914
1	1899	7915
1	1907	7916
1	1910	7917
1	1913	7918
1	1922	7919
1	1921	7940
1	1917	7941
1	1917	7942
1	1907	7943
1	1896	7944
1	1886	7945
1	1879	7946
1	1874	7947
1	1872	7948
1	1875	7949
1	1877	7950
1	1867	7951
1	1865	7952
1	1868	7953
1	1877	7954
1	1895	7955
1	1921	7956
1	1935	7957
1	1950	7958
1	1958	7959
1	1929	7920
1	1935	7921
1	1936	7922
1	1937	7923
1	1932	7924
1	1929	7925
1	1926	7926
1	1931	7927
1	1931	7928
1	1944	7929
1	1949	7930
1	1953	7931
1	1956	7932
1	1959	7933
1	1962	7934
1	1958	7935
1	1943	7936
1	1935	7937
1	1932	7938
1	1922	7939
1	1955	7960
1	1957	7961
1	1962	7962
1	1970	7963
1	1969	7964
1	1965	7965
1	1949	7966
1	1940	7967
1	1935	7968
1	1932	7969
1	1926	7970
1	1922	7971
1	1913	7972
1	1904	7973
1	1904	7974
1	1908	7975
1	1921	7976
1	1932	7977
1	1940	7978
1	1946	7979
1	1935	7980
1	1927	7981
1	1920	7982
1	1906	7983
1	1893	7984
1	1871	7985
1	1859	7986
1	1845	7987
1	1841	7988
1	1842	7989
1	1843	7990
1	1849	7991
1	1860	7992
1	1877	7993
1	1895	7994
1	1912	7995
1	1913	7996
1	1915	7997
1	1922	7998
1	1924	7999
1	1924	8000
1	1922	8000
1	1908	8002
1	1895	8003
1	1884	8004
1	1883	8005
1	1875	8006
1	1864	8007
1	1849	8008
1	1845	8009
1	1855	8010
1	1859	8011
1	1870	8012
1	1883	8013
1	1897	8013
1	1911	8015
1	1926	8016
1	1933	8016
1	1940	8018
1	1945	8019
1	1945	8020
1	1937	8021
1	1922	8022
1	1910	8023
1	1895	8024
1	1885	8025
1	1871	8026
1	1859	8027
1	1846	8028
1	1835	8029
1	1825	8029
1	1818	8031
1	1817	8032
1	1814	8032
1	1816	8034
1	1832	8035
1	1843	8036
1	1856	8037
1	1868	8038
1	1873	8039
1	1882	8040
1	1882	8041
1	1884	8042
1	1880	8043
1	1875	8044
1	1873	8045
1	1880	8045
1	1878	8047
1	1878	8048
1	1886	8048
1	1895	8050
1	1904	8051
1	1912	8052
1	1922	8053
1	1934	8054
1	1943	8055
1	1940	8056
1	1943	8057
1	1949	8058
1	1950	8059
1	1944	8060
1	1940	8061
1	1923	8061
1	1906	8063
1	1883	8064
1	1856	8064
1	1831	8066
1	1817	8067
1	1813	8068
1	1814	8069
1	1821	8070
1	1825	8071
1	1829	8072
1	1830	8073
1	1834	8074
1	1843	8074
1	1856	8076
1	1867	8077
1	1868	8077
1	1859	8079
1	1944	8100
1	1944	8101
1	1935	8102
1	1921	8103
1	1904	8104
1	1891	8105
1	1874	8106
1	1853	8106
1	1827	8108
1	1803	8109
1	1788	8109
1	1778	8111
1	1774	8112
1	1778	8113
1	1790	8114
1	1815	8115
1	1828	8116
1	1843	8117
1	1857	8118
1	1869	8119
1	1844	8080
1	1828	8080
1	1817	8082
1	1817	8083
1	1823	8084
1	1838	8085
1	1836	8086
1	1829	8087
1	1823	8088
1	1816	8089
1	1803	8090
1	1809	8090
1	1803	8092
1	1813	8093
1	1828	8093
1	1843	8095
1	1859	8096
1	1881	8096
1	1908	8098
1	1925	8099
1	1872	8120
1	1873	8121
1	1863	8122
1	1850	8122
1	1856	8124
1	1856	8125
1	1848	8125
1	1849	8127
1	1850	8128
1	1844	8129
1	1825	8130
1	1801	8131
1	1790	8132
1	1790	8133
1	1791	8134
1	1803	8135
1	1819	8136
1	1831	8137
1	1843	8138
1	1844	8138
1	1848	8140
1	1842	8141
1	1828	8141
1	1817	8143
1	1796	8144
1	1785	8145
1	1775	8146
1	1774	8147
1	1777	8148
1	1780	8149
1	1785	8150
1	1791	8151
1	1788	8152
1	1778	8153
1	1769	8154
1	1766	8154
1	1774	8156
1	1786	8157
1	1800	8157
1	1819	8159
1	1841	8160
1	1852	8161
1	1862	8162
1	1863	8163
1	1863	8164
1	1860	8165
1	1859	8166
1	1845	8167
1	1829	8168
1	1817	8169
1	1811	8170
1	1802	8170
1	1803	8172
1	1816	8173
1	1825	8173
1	1834	8175
1	1839	8176
1	1844	8177
1	1845	8178
1	1843	8179
1	1904	8200
1	1909	8201
1	1901	8202
1	1883	8203
1	1856	8204
1	1819	8205
1	1776	8206
1	1749	8207
1	1733	8208
1	1723	8209
1	1715	8210
1	1725	8211
1	1739	8212
1	1763	8213
1	1782	8214
1	1814	8215
1	1841	8216
1	1860	8217
1	1875	8218
1	1886	8219
1	1847	8180
1	1856	8181
1	1848	8182
1	1836	8183
1	1815	8184
1	1783	8185
1	1760	8186
1	1743	8186
1	1729	8188
1	1719	8189
1	1712	8189
1	1702	8191
1	1703	8192
1	1714	8193
1	1734	8194
1	1764	8195
1	1803	8196
1	1841	8197
1	1867	8198
1	1886	8199
1	1891	8220
1	1871	8221
1	1857	8222
1	1845	8223
1	1843	8224
1	1841	8225
1	1841	8226
1	1835	8227
1	1819	8228
1	1816	8229
1	1796	8230
1	1787	8231
1	1781	8232
1	1781	8233
1	1789	8234
1	1801	8235
1	1823	8236
1	1837	8237
1	1843	8238
1	1852	8239
1	1855	8240
1	1855	8241
1	1850	8242
1	1844	8243
1	1842	8244
1	1834	8245
1	1829	8246
1	1824	8247
1	1827	8248
1	1830	8249
1	1824	8250
1	1803	8251
1	1788	8252
1	1767	8253
1	1749	8254
1	1738	8255
1	1746	8256
1	1755	8257
1	1779	8258
1	1815	8259
1	1845	8260
1	1869	8261
1	1883	8262
1	1886	8263
1	1874	8264
1	1859	8265
1	1829	8266
1	1801	8267
1	1775	8268
1	1744	8269
1	1711	8270
1	1688	8271
1	1667	8272
1	1655	8273
1	1646	8274
1	1642	8275
1	1647	8276
1	1661	8277
1	1682	8278
1	1697	8279
1	1710	8280
1	1712	8281
1	1715	8282
1	1715	8283
1	1712	8284
1	1701	8285
1	1697	8286
1	1680	8287
1	1660	8288
1	1647	8289
1	1634	8290
1	1633	8291
1	1638	8292
1	1648	8293
1	1672	8294
1	1698	8295
1	1712	8296
1	1723	8297
1	1731	8298
1	1737	8299
1	1744	8300
1	1755	8301
1	1752	8302
1	1742	8303
1	1724	8304
1	1700	8305
1	1667	8306
1	1634	8307
1	1597	8308
1	1567	8309
1	1543	8310
1	1529	8311
1	1523	8312
1	1526	8313
1	1533	8314
1	1548	8315
1	1569	8316
1	1583	8317
1	1593	8318
1	1607	8319
1	1620	8320
1	1634	8321
1	1634	8322
1	1634	8323
1	1635	8324
1	1634	8325
1	1634	8326
1	1636	8327
1	1631	8328
1	1629	8329
1	1629	8330
1	1632	8331
1	1634	8332
1	1643	8333
1	1659	8334
1	1686	8335
1	1706	8336
1	1721	8337
1	1728	8338
1	1727	8339
1	1713	8360
1	1733	8361
1	1739	8362
1	1740	8363
1	1738	8364
1	1738	8365
1	1741	8366
1	1749	8367
1	1755	8368
1	1769	8369
1	1796	8370
1	1823	8371
1	1855	8372
1	1880	8373
1	1903	8374
1	1931	8375
1	1962	8376
1	1986	8377
1	2010	8378
1	2029	8379
1	1710	8340
1	1681	8341
1	1656	8342
1	1638	8343
1	1621	8344
1	1607	8345
1	1593	8346
1	1579	8347
1	1559	8348
1	1540	8349
1	1529	8350
1	1529	8351
1	1539	8352
1	1553	8353
1	1568	8354
1	1592	8355
1	1612	8356
1	1643	8357
1	1672	8358
1	1695	8359
1	2048	8380
1	2053	8381
1	2055	8382
1	2055	8383
1	2055	8384
1	2052	8385
1	2040	8386
1	2030	8387
1	2018	8388
1	2004	8389
1	1995	8390
1	1991	8391
1	1974	8392
1	1961	8393
1	1952	8394
1	1944	8395
1	1935	8396
1	1917	8397
1	1888	8398
1	1849	8399
1	1799	8400
1	1738	8401
1	1674	8402
1	1607	8403
1	1540	8404
1	1476	8405
1	1427	8406
1	1384	8407
1	1348	8408
1	1330	8409
1	1319	8410
1	1323	8411
1	1338	8412
1	1357	8413
1	1380	8414
1	1410	8415
1	1438	8416
1	1476	8417
1	1516	8418
1	1550	8419
1	1581	8420
1	1605	8421
1	1607	8422
1	1593	8423
1	1584	8424
1	1567	8425
1	1543	8426
1	1523	8427
1	1502	8428
1	1485	8429
1	1469	8430
1	1451	8431
1	1445	8432
1	1445	8433
1	1453	8434
1	1476	8435
1	1503	8436
1	1533	8437
1	1559	8438
1	1583	8439
1	1607	8440
1	1618	8441
1	1620	8442
1	1616	8443
1	1600	8444
1	1582	8445
1	1559	8446
1	1533	8447
1	1503	8448
1	1472	8449
1	1441	8450
1	1423	8451
1	1406	8452
1	1400	8453
1	1400	8454
1	1409	8455
1	1427	8456
1	1449	8457
1	1476	8458
1	1507	8459
1	1578	8480
1	1586	8481
1	1586	8482
1	1584	8483
1	1579	8484
1	1577	8485
1	1580	8486
1	1581	8487
1	1580	8488
1	1571	8489
1	1556	8490
1	1540	8491
1	1529	8492
1	1515	8493
1	1499	8494
1	1476	8495
1	1469	8496
1	1464	8497
1	1463	8498
1	1466	8499
1	1533	8460
1	1545	8461
1	1557	8462
1	1569	8463
1	1574	8464
1	1572	8465
1	1572	8466
1	1564	8467
1	1554	8468
1	1542	8469
1	1529	8470
1	1517	8471
1	1508	8472
1	1505	8473
1	1507	8474
1	1513	8475
1	1518	8476
1	1530	8477
1	1547	8478
1	1566	8479
1	1467	8500
1	1475	8501
1	1481	8502
1	1493	8503
1	1499	8504
1	1498	8505
1	1486	8506
1	1488	8507
1	1489	8508
1	1486	8509
1	1477	8510
1	1479	8511
1	1480	8512
1	1490	8513
1	1502	8514
1	1512	8515
1	1525	8516
1	1527	8517
1	1528	8518
1	1525	8519
1	1521	8520
1	1512	8521
1	1510	8522
1	1512	8523
1	1508	8524
1	1504	8525
1	1498	8526
1	1495	8527
1	1478	8528
1	1476	8529
1	1468	8530
1	1467	8531
1	1469	8532
1	1479	8533
1	1492	8534
1	1515	8535
1	1533	8536
1	1547	8537
1	1555	8538
1	1567	8539
1	1574	8540
1	1569	8541
1	1561	8542
1	1544	8543
1	1526	8544
1	1512	8545
1	1503	8546
1	1490	8547
1	1476	8548
1	1454	8549
1	1446	8550
1	1440	8551
1	1449	8552
1	1464	8553
1	1485	8554
1	1508	8555
1	1530	8556
1	1544	8557
1	1557	8558
1	1566	8559
1	1580	8560
1	1593	8561
1	1600	8562
1	1597	8563
1	1585	8564
1	1570	8565
1	1544	8566
1	1528	8567
1	1513	8568
1	1503	8569
1	1490	8570
1	1482	8571
1	1476	8572
1	1481	8573
1	1491	8574
1	1500	8575
1	1505	8576
1	1513	8577
1	1523	8578
1	1534	8579
1	1561	8600
1	1577	8601
1	1580	8602
1	1581	8603
1	1581	8604
1	1579	8605
1	1568	8606
1	1561	8607
1	1555	8608
1	1548	8609
1	1535	8610
1	1515	8611
1	1507	8612
1	1506	8613
1	1503	8614
1	1504	8615
1	1518	8616
1	1529	8617
1	1541	8618
1	1553	8619
1	1542	8580
1	1549	8581
1	1556	8582
1	1566	8583
1	1574	8584
1	1579	8585
1	1577	8586
1	1559	8587
1	1544	8588
1	1530	8589
1	1528	8590
1	1521	8591
1	1518	8592
1	1515	8593
1	1515	8594
1	1521	8595
1	1523	8596
1	1529	8597
1	1539	8598
1	1553	8599
1	1564	8620
1	1570	8621
1	1569	8622
1	1566	8623
1	1559	8624
1	1556	8625
1	1555	8626
1	1557	8627
1	1567	8628
1	1581	8629
1	1602	8630
1	1631	8631
1	1659	8632
1	1675	8633
1	1695	8634
1	1707	8635
1	1707	8636
1	1702	8637
1	1698	8638
1	1689	8639
1	1644	8660
1	1639	8661
1	1634	8662
1	1634	8663
1	1634	8664
1	1630	8665
1	1620	8666
1	1607	8667
1	1595	8668
1	1584	8669
1	1580	8670
1	1564	8671
1	1550	8672
1	1539	8673
1	1533	8674
1	1535	8675
1	1535	8676
1	1537	8677
1	1544	8678
1	1554	8679
1	1682	8640
1	1668	8641
1	1654	8642
1	1636	8643
1	1616	8644
1	1595	8645
1	1582	8646
1	1571	8647
1	1561	8648
1	1557	8649
1	1564	8650
1	1572	8651
1	1581	8652
1	1589	8653
1	1602	8654
1	1616	8655
1	1625	8656
1	1634	8657
1	1643	8658
1	1646	8659
1	1559	8680
1	1567	8681
1	1572	8682
1	1575	8683
1	1580	8684
1	1581	8685
1	1581	8686
1	1581	8687
1	1574	8688
1	1562	8689
1	1555	8690
1	1544	8691
1	1540	8692
1	1538	8693
1	1531	8694
1	1515	8695
1	1490	8696
1	1463	8697
1	1438	8698
1	1423	8699
1	1410	8700
1	1400	8701
1	1402	8702
1	1405	8703
1	1402	8704
1	1403	8705
1	1398	8706
1	1391	8707
1	1371	8708
1	1353	8709
1	1338	8710
1	1323	8711
1	1317	8712
1	1323	8713
1	1333	8714
1	1344	8715
1	1345	8716
1	1343	8717
1	1340	8718
1	1335	8719
1	1330	8720
1	1319	8721
1	1296	8722
1	1285	8723
1	1274	8724
1	1250	8725
1	1231	8726
1	1215	8727
1	1197	8728
1	1179	8729
1	1170	8730
1	1168	8731
1	1177	8732
1	1194	8733
1	1215	8734
1	1237	8735
1	1263	8736
1	1284	8737
1	1308	8738
1	1330	8739
1	1350	8740
1	1367	8741
1	1376	8742
1	1373	8743
1	1363	8744
1	1341	8745
1	1312	8746
1	1284	8747
1	1266	8748
1	1256	8749
1	1255	8750
1	1242	8751
1	1246	8752
1	1255	8753
1	1259	8754
1	1258	8755
1	1257	8756
1	1262	8757
1	1267	8758
1	1272	8759
1	1279	8760
1	1280	8761
1	1282	8762
1	1280	8763
1	1273	8764
1	1268	8765
1	1247	8766
1	1233	8767
1	1223	8768
1	1224	8769
1	1237	8770
1	1252	8771
1	1267	8772
1	1286	8773
1	1307	8774
1	1325	8775
1	1338	8776
1	1346	8777
1	1346	8778
1	1337	8779
1	1328	8780
1	1302	8781
1	1280	8782
1	1267	8783
1	1258	8784
1	1251	8785
1	1242	8786
1	1237	8787
1	1236	8788
1	1233	8789
1	1232	8790
1	1228	8791
1	1228	8792
1	1228	8793
1	1223	8794
1	1226	8795
1	1221	8796
1	1220	8797
1	1223	8798
1	1226	8799
1	1228	8800
1	1230	8801
1	1224	8802
1	1214	8803
1	1202	8804
1	1187	8805
1	1170	8806
1	1164	8807
1	1162	8808
1	1162	8809
1	1173	8810
1	1175	8811
1	1193	8812
1	1220	8813
1	1247	8814
1	1272	8815
1	1292	8816
1	1301	8817
1	1307	8818
1	1315	8819
1	1319	8820
1	1314	8821
1	1305	8822
1	1294	8823
1	1281	8824
1	1267	8825
1	1258	8826
1	1250	8827
1	1244	8828
1	1250	8829
1	1248	8830
1	1249	8831
1	1250	8832
1	1250	8833
1	1248	8834
1	1249	8835
1	1242	8836
1	1246	8837
1	1253	8838
1	1259	8839
1	1255	8840
1	1251	8841
1	1246	8842
1	1245	8843
1	1251	8844
1	1261	8845
1	1271	8846
1	1284	8847
1	1297	8848
1	1309	8849
1	1306	8850
1	1293	8851
1	1283	8852
1	1279	8853
1	1273	8854
1	1272	8855
1	1262	8856
1	1253	8857
1	1249	8858
1	1250	8859
1	1256	8860
1	1266	8861
1	1269	8862
1	1273	8863
1	1278	8864
1	1273	8865
1	1265	8866
1	1255	8867
1	1247	8868
1	1241	8869
1	1245	8870
1	1239	8871
1	1240	8872
1	1242	8873
1	1255	8874
1	1272	8875
1	1292	8876
1	1302	8877
1	1304	8878
1	1301	8879
1	1295	8880
1	1292	8881
1	1291	8882
1	1292	8883
1	1289	8884
1	1292	8885
1	1284	8886
1	1279	8887
1	1269	8888
1	1260	8889
1	1248	8890
1	1238	8891
1	1225	8892
1	1214	8893
1	1202	8894
1	1197	8895
1	1197	8896
1	1204	8897
1	1215	8898
1	1228	8899
1	1240	8900
1	1243	8901
1	1247	8902
1	1246	8903
1	1242	8904
1	1242	8905
1	1248	8906
1	1261	8907
1	1267	8908
1	1267	8909
1	1267	8910
1	1263	8911
1	1265	8912
1	1269	8913
1	1289	8914
1	1317	8915
1	1337	8916
1	1356	8917
1	1368	8918
1	1366	8919
1	1366	8940
1	1357	8941
1	1346	8942
1	1327	8943
1	1305	8944
1	1281	8945
1	1258	8946
1	1238	8947
1	1220	8948
1	1211	8949
1	1213	8950
1	1219	8951
1	1229	8952
1	1242	8953
1	1260	8954
1	1280	8955
1	1293	8956
1	1302	8957
1	1314	8958
1	1319	8959
1	1350	8920
1	1336	8921
1	1310	8922
1	1292	8923
1	1266	8924
1	1241	8925
1	1219	8926
1	1194	8927
1	1174	8928
1	1161	8929
1	1160	8930
1	1167	8931
1	1186	8932
1	1214	8933
1	1246	8934
1	1288	8935
1	1319	8936
1	1341	8937
1	1354	8938
1	1364	8939
1	1319	8960
1	1309	8961
1	1294	8962
1	1278	8963
1	1261	8964
1	1242	8965
1	1233	8966
1	1233	8967
1	1241	8968
1	1247	8969
1	1247	8970
1	1246	8971
1	1249	8972
1	1259	8973
1	1267	8974
1	1280	8975
1	1293	8976
1	1301	8977
1	1310	8978
1	1322	8979
1	1241	9000
1	1251	9001
1	1258	9002
1	1258	9003
1	1258	9004
1	1256	9005
1	1267	9006
1	1276	9007
1	1289	9008
1	1299	9009
1	1310	9010
1	1316	9011
1	1320	9012
1	1338	9013
1	1358	9014
1	1377	9015
1	1396	9016
1	1412	9017
1	1428	9018
1	1448	9019
1	1330	8980
1	1343	8981
1	1347	8982
1	1355	8983
1	1357	8984
1	1355	8985
1	1338	8986
1	1325	8987
1	1319	8988
1	1315	8989
1	1309	8990
1	1302	8991
1	1291	8992
1	1276	8993
1	1265	8994
1	1255	8995
1	1245	8996
1	1239	8997
1	1235	8998
1	1235	8999
1	1459	9020
1	1463	9021
1	1442	9022
1	1409	9023
1	1373	9024
1	1330	9025
1	1293	9026
1	1265	9027
1	1231	9028
1	1207	9029
1	1197	9030
1	1199	9031
1	1210	9032
1	1229	9033
1	1249	9034
1	1270	9035
1	1293	9036
1	1312	9037
1	1328	9038
1	1342	9039
1	1409	9060
1	1393	9061
1	1372	9062
1	1350	9063
1	1332	9064
1	1319	9065
1	1306	9066
1	1293	9067
1	1283	9068
1	1279	9069
1	1276	9070
1	1279	9071
1	1284	9072
1	1297	9073
1	1321	9074
1	1346	9075
1	1361	9076
1	1370	9077
1	1372	9078
1	1372	9079
1	1355	9040
1	1357	9041
1	1348	9042
1	1328	9043
1	1295	9044
1	1265	9045
1	1237	9046
1	1219	9047
1	1215	9048
1	1215	9049
1	1217	9050
1	1229	9051
1	1239	9052
1	1251	9053
1	1272	9054
1	1304	9055
1	1341	9056
1	1373	9057
1	1398	9058
1	1410	9059
1	1373	9080
1	1384	9081
1	1398	9082
1	1405	9083
1	1415	9084
1	1424	9085
1	1424	9086
1	1400	9087
1	1366	9088
1	1328	9089
1	1293	9090
1	1265	9091
1	1247	9092
1	1248	9093
1	1260	9094
1	1278	9095
1	1297	9096
1	1314	9097
1	1322	9098
1	1341	9099
1	1358	9100
1	1376	9101
1	1398	9102
1	1409	9103
1	1413	9104
1	1409	9105
1	1398	9106
1	1378	9107
1	1366	9108
1	1356	9109
1	1357	9110
1	1356	9111
1	1350	9112
1	1348	9113
1	1354	9114
1	1364	9115
1	1380	9116
1	1400	9117
1	1422	9118
1	1437	9119
1	1441	9120
1	1433	9121
1	1418	9122
1	1398	9123
1	1382	9124
1	1382	9125
1	1391	9126
1	1398	9127
1	1399	9128
1	1398	9129
1	1390	9130
1	1376	9131
1	1372	9132
1	1377	9133
1	1392	9134
1	1405	9135
1	1410	9136
1	1418	9137
1	1424	9138
1	1437	9139
1	1450	9140
1	1469	9141
1	1485	9142
1	1499	9143
1	1511	9144
1	1516	9145
1	1523	9146
1	1531	9147
1	1535	9148
1	1526	9149
1	1506	9150
1	1476	9151
1	1447	9152
1	1419	9153
1	1392	9154
1	1371	9155
1	1369	9156
1	1374	9157
1	1397	9158
1	1422	9159
1	1443	9160
1	1462	9161
1	1476	9162
1	1476	9163
1	1471	9164
1	1462	9165
1	1450	9166
1	1442	9167
1	1433	9168
1	1423	9169
1	1411	9170
1	1404	9171
1	1400	9172
1	1412	9173
1	1429	9174
1	1451	9175
1	1471	9176
1	1477	9177
1	1479	9178
1	1467	9179
1	1454	9180
1	1445	9181
1	1435	9182
1	1422	9183
1	1405	9184
1	1384	9185
1	1372	9186
1	1353	9187
1	1338	9188
1	1319	9189
1	1305	9190
1	1294	9191
1	1294	9192
1	1301	9193
1	1316	9194
1	1333	9195
1	1358	9196
1	1392	9197
1	1424	9198
1	1454	9199
1	1481	9200
1	1503	9201
1	1512	9202
1	1507	9203
1	1497	9204
1	1474	9205
1	1437	9206
1	1398	9207
1	1359	9208
1	1335	9209
1	1322	9210
1	1314	9211
1	1311	9212
1	1316	9213
1	1320	9214
1	1326	9215
1	1335	9216
1	1343	9217
1	1349	9218
1	1361	9219
1	1371	9220
1	1381	9221
1	1384	9222
1	1382	9223
1	1373	9224
1	1368	9225
1	1358	9226
1	1348	9227
1	1341	9228
1	1337	9229
1	1335	9230
1	1337	9231
1	1347	9232
1	1369	9233
1	1391	9234
1	1409	9235
1	1422	9236
1	1437	9237
1	1449	9238
1	1458	9239
1	1465	9240
1	1467	9241
1	1471	9242
1	1468	9243
1	1458	9244
1	1441	9245
1	1424	9246
1	1401	9247
1	1376	9248
1	1361	9249
1	1353	9250
1	1346	9251
1	1350	9252
1	1359	9253
1	1373	9254
1	1398	9255
1	1424	9256
1	1449	9257
1	1472	9258
1	1490	9259
1	1503	9260
1	1516	9261
1	1520	9262
1	1524	9263
1	1529	9264
1	1531	9265
1	1539	9266
1	1543	9267
1	1554	9268
1	1558	9269
1	1567	9270
1	1572	9271
1	1583	9272
1	1607	9273
1	1631	9274
1	1661	9275
1	1701	9276
1	1738	9277
1	1766	9278
1	1791	9279
1	1701	9300
1	1678	9301
1	1647	9302
1	1609	9303
1	1571	9304
1	1530	9305
1	1490	9306
1	1450	9307
1	1409	9308
1	1368	9309
1	1340	9310
1	1320	9311
1	1308	9312
1	1298	9313
1	1288	9314
1	1281	9315
1	1278	9316
1	1281	9317
1	1292	9318
1	1305	9319
1	1803	9280
1	1818	9281
1	1821	9282
1	1817	9283
1	1802	9284
1	1783	9285
1	1757	9286
1	1734	9287
1	1712	9288
1	1687	9289
1	1672	9290
1	1667	9291
1	1669	9292
1	1683	9293
1	1695	9294
1	1707	9295
1	1715	9296
1	1720	9297
1	1715	9298
1	1711	9299
1	1324	9320
1	1350	9321
1	1376	9322
1	1399	9323
1	1435	9324
1	1450	9325
1	1471	9326
1	1485	9327
1	1499	9328
1	1503	9329
1	1513	9330
1	1516	9331
1	1516	9332
1	1514	9333
1	1512	9334
1	1515	9335
1	1521	9336
1	1528	9337
1	1530	9338
1	1533	9339
1	1531	9340
1	1528	9341
1	1519	9342
1	1515	9343
1	1503	9344
1	1490	9345
1	1476	9346
1	1474	9347
1	1477	9348
1	1490	9349
1	1512	9350
1	1536	9351
1	1556	9352
1	1581	9353
1	1595	9354
1	1614	9355
1	1616	9356
1	1605	9357
1	1585	9358
1	1566	9359
1	1543	9360
1	1515	9361
1	1489	9362
1	1465	9363
1	1445	9364
1	1431	9365
1	1433	9366
1	1439	9367
1	1452	9368
1	1468	9369
1	1479	9370
1	1489	9371
1	1494	9372
1	1502	9373
1	1513	9374
1	1530	9375
1	1541	9376
1	1555	9377
1	1579	9378
1	1593	9379
1	1607	9380
1	1623	9381
1	1626	9382
1	1623	9383
1	1611	9384
1	1596	9385
1	1580	9386
1	1566	9387
1	1555	9388
1	1556	9389
1	1566	9390
1	1571	9391
1	1569	9392
1	1568	9393
1	1567	9394
1	1563	9395
1	1559	9396
1	1555	9397
1	1561	9398
1	1573	9399
1	1585	9400
1	1596	9401
1	1597	9402
1	1592	9403
1	1590	9404
1	1592	9405
1	1589	9406
1	1594	9407
1	1604	9408
1	1613	9409
1	1623	9410
1	1634	9411
1	1634	9412
1	1623	9413
1	1618	9414
1	1616	9415
1	1618	9416
1	1611	9417
1	1605	9418
1	1595	9419
1	1589	9420
1	1581	9421
1	1580	9422
1	1577	9423
1	1580	9424
1	1581	9425
1	1591	9426
1	1605	9427
1	1617	9428
1	1634	9429
1	1643	9430
1	1647	9431
1	1652	9432
1	1660	9433
1	1669	9434
1	1680	9435
1	1674	9436
1	1661	9437
1	1650	9438
1	1638	9439
1	1631	9440
1	1618	9441
1	1620	9442
1	1615	9443
1	1607	9444
1	1602	9445
1	1602	9446
1	1609	9447
1	1633	9448
1	1660	9449
1	1682	9450
1	1690	9451
1	1691	9452
1	1687	9453
1	1675	9454
1	1664	9455
1	1658	9456
1	1648	9457
1	1645	9458
1	1643	9459
1	1641	9460
1	1638	9461
1	1631	9462
1	1625	9463
1	1625	9464
1	1632	9465
1	1633	9466
1	1634	9467
1	1634	9468
1	1630	9469
1	1629	9470
1	1630	9471
1	1628	9472
1	1633	9473
1	1644	9474
1	1659	9475
1	1670	9476
1	1680	9477
1	1693	9478
1	1712	9479
1	1779	9500
1	1791	9501
1	1791	9502
1	1790	9503
1	1791	9504
1	1796	9505
1	1808	9506
1	1816	9507
1	1812	9508
1	1800	9509
1	1780	9510
1	1751	9511
1	1723	9512
1	1703	9513
1	1692	9514
1	1695	9515
1	1712	9516
1	1731	9517
1	1752	9518
1	1775	9519
1	1718	9480
1	1716	9481
1	1712	9482
1	1703	9483
1	1693	9484
1	1686	9485
1	1690	9486
1	1688	9487
1	1692	9488
1	1697	9489
1	1695	9490
1	1686	9491
1	1674	9492
1	1670	9493
1	1675	9494
1	1690	9495
1	1711	9496
1	1736	9497
1	1757	9498
1	1770	9499
1	1831	9540
1	1835	9541
1	1843	9542
1	1843	9543
1	1841	9544
1	1828	9545
1	1821	9546
1	1800	9547
1	1788	9548
1	1777	9549
1	1773	9550
1	1777	9551
1	1791	9552
1	1817	9553
1	1843	9554
1	1856	9555
1	1855	9556
1	1844	9557
1	1830	9558
1	1816	9559
1	1795	9520
1	1809	9521
1	1800	9522
1	1792	9523
1	1789	9524
1	1787	9525
1	1781	9526
1	1778	9527
1	1778	9528
1	1770	9529
1	1760	9530
1	1751	9531
1	1744	9532
1	1746	9533
1	1753	9534
1	1769	9535
1	1776	9536
1	1786	9537
1	1796	9538
1	1818	9539
1	1796	9560
1	1800	9561
1	1801	9562
1	1809	9563
1	1813	9564
1	1816	9565
1	1823	9566
1	1830	9567
1	1835	9568
1	1836	9569
1	1839	9570
1	1831	9571
1	1828	9572
1	1830	9573
1	1832	9574
1	1837	9575
1	1842	9576
1	1842	9577
1	1833	9578
1	1815	9579
1	1791	9580
1	1773	9581
1	1754	9582
1	1743	9583
1	1736	9584
1	1738	9585
1	1740	9586
1	1738	9587
1	1738	9588
1	1731	9589
1	1726	9590
1	1725	9591
1	1724	9592
1	1726	9593
1	1735	9594
1	1751	9595
1	1770	9596
1	1791	9597
1	1803	9598
1	1803	9599
1	1791	9600
1	1765	9601
1	1746	9602
1	1724	9603
1	1710	9604
1	1695	9605
1	1686	9606
1	1675	9607
1	1665	9608
1	1656	9609
1	1643	9610
1	1634	9611
1	1621	9612
1	1611	9613
1	1607	9614
1	1605	9615
1	1598	9616
1	1600	9617
1	1607	9618
1	1616	9619
1	1634	9620
1	1656	9621
1	1665	9622
1	1670	9623
1	1677	9624
1	1662	9625
1	1651	9626
1	1629	9627
1	1607	9628
1	1584	9629
1	1569	9630
1	1559	9631
1	1555	9632
1	1553	9633
1	1551	9634
1	1553	9635
1	1553	9636
1	1548	9637
1	1543	9638
1	1538	9639
1	1535	9640
1	1529	9641
1	1524	9642
1	1523	9643
1	1523	9644
1	1519	9645
1	1512	9646
1	1502	9647
1	1494	9648
1	1490	9649
1	1487	9650
1	1492	9651
1	1495	9652
1	1504	9653
1	1521	9654
1	1535	9655
1	1555	9656
1	1575	9657
1	1597	9658
1	1616	9659
1	1625	9660
1	1616	9661
1	1607	9662
1	1598	9663
1	1589	9664
1	1580	9665
1	1580	9666
1	1579	9667
1	1581	9668
1	1579	9669
1	1570	9670
1	1562	9671
1	1555	9672
1	1545	9673
1	1533	9674
1	1529	9675
1	1526	9676
1	1525	9677
1	1526	9678
1	1533	9679
1	1541	9680
1	1553	9681
1	1556	9682
1	1558	9683
1	1555	9684
1	1550	9685
1	1546	9686
1	1544	9687
1	1549	9688
1	1555	9689
1	1559	9690
1	1564	9691
1	1573	9692
1	1585	9693
1	1595	9694
1	1601	9695
1	1607	9696
1	1609	9697
1	1608	9698
1	1607	9699
1	1606	9700
1	1608	9701
1	1618	9702
1	1626	9703
1	1631	9704
1	1624	9705
1	1602	9706
1	1580	9707
1	1555	9708
1	1529	9709
1	1508	9710
1	1502	9711
1	1495	9712
1	1503	9713
1	1517	9714
1	1530	9715
1	1544	9716
1	1562	9717
1	1585	9718
1	1613	9719
1	1634	9720
1	1645	9721
1	1649	9722
1	1652	9723
1	1644	9724
1	1636	9725
1	1628	9726
1	1602	9727
1	1569	9728
1	1544	9729
1	1526	9730
1	1512	9731
1	1505	9732
1	1508	9733
1	1517	9734
1	1532	9735
1	1555	9736
1	1569	9737
1	1580	9738
1	1586	9739
1	1592	9740
1	1593	9741
1	1593	9742
1	1591	9743
1	1593	9744
1	1595	9745
1	1589	9746
1	1580	9747
1	1567	9748
1	1557	9749
1	1557	9750
1	1556	9751
1	1567	9752
1	1585	9753
1	1607	9754
1	1634	9755
1	1665	9756
1	1688	9757
1	1704	9758
1	1707	9759
1	1704	9760
1	1700	9761
1	1694	9762
1	1682	9763
1	1663	9764
1	1641	9765
1	1608	9766
1	1584	9767
1	1562	9768
1	1538	9769
1	1517	9770
1	1515	9771
1	1515	9772
1	1520	9773
1	1530	9774
1	1549	9775
1	1566	9776
1	1581	9777
1	1593	9778
1	1611	9779
1	1633	9780
1	1641	9781
1	1643	9782
1	1634	9783
1	1618	9784
1	1602	9785
1	1589	9786
1	1574	9787
1	1557	9788
1	1545	9789
1	1533	9790
1	1529	9791
1	1529	9792
1	1529	9793
1	1537	9794
1	1544	9795
1	1543	9796
1	1545	9797
1	1546	9798
1	1555	9799
1	1571	9800
1	1595	9801
1	1612	9802
1	1626	9803
1	1633	9804
1	1634	9805
1	1634	9806
1	1636	9807
1	1647	9808
1	1658	9809
1	1656	9810
1	1634	9811
1	1608	9812
1	1589	9813
1	1574	9814
1	1564	9815
1	1562	9816
1	1557	9817
1	1549	9818
1	1544	9819
1	1546	9820
1	1559	9821
1	1581	9822
1	1590	9823
1	1606	9824
1	1614	9825
1	1621	9826
1	1629	9827
1	1634	9828
1	1624	9829
1	1613	9830
1	1602	9831
1	1583	9832
1	1577	9833
1	1569	9834
1	1569	9835
1	1566	9836
1	1566	9837
1	1566	9838
1	1569	9839
1	1606	9860
1	1610	9861
1	1608	9862
1	1607	9863
1	1602	9864
1	1598	9865
1	1598	9866
1	1599	9867
1	1597	9868
1	1598	9869
1	1594	9870
1	1582	9871
1	1575	9872
1	1570	9873
1	1566	9874
1	1566	9875
1	1577	9876
1	1589	9877
1	1594	9878
1	1596	9879
1	1596	9880
1	1590	9881
1	1582	9882
1	1580	9883
1	1576	9884
1	1566	9885
1	1562	9886
1	1556	9887
1	1553	9888
1	1552	9889
1	1556	9890
1	1567	9891
1	1576	9892
1	1585	9893
1	1594	9894
1	1598	9895
1	1597	9896
1	1595	9897
1	1597	9898
1	1602	9899
1	1567	9840
1	1564	9841
1	1557	9842
1	1553	9843
1	1546	9844
1	1542	9845
1	1543	9846
1	1541	9847
1	1546	9848
1	1552	9849
1	1559	9850
1	1566	9851
1	1575	9852
1	1580	9853
1	1581	9854
1	1584	9855
1	1582	9856
1	1589	9857
1	1593	9858
1	1602	9859
1	1599	9900
1	1598	9901
1	1601	9902
1	1605	9903
1	1607	9904
1	1609	9905
1	1623	9906
1	1625	9907
1	1625	9908
1	1623	9909
1	1621	9910
1	1620	9911
1	1611	9912
1	1598	9913
1	1579	9914
1	1555	9915
1	1534	9916
1	1527	9917
1	1523	9918
1	1523	9919
1	1530	9920
1	1553	9921
1	1569	9922
1	1580	9923
1	1594	9924
1	1595	9925
1	1598	9926
1	1603	9927
1	1607	9928
1	1613	9929
1	1625	9930
1	1634	9931
1	1644	9932
1	1651	9933
1	1656	9934
1	1660	9935
1	1663	9936
1	1667	9937
1	1667	9938
1	1670	9939
1	1679	9940
1	1675	9941
1	1670	9942
1	1662	9943
1	1656	9944
1	1639	9945
1	1621	9946
1	1607	9947
1	1598	9948
1	1585	9949
1	1580	9950
1	1580	9951
1	1573	9952
1	1571	9953
1	1577	9954
1	1593	9955
1	1615	9956
1	1643	9957
1	1662	9958
1	1684	9959
1	1701	9980
1	1712	9981
1	1714	9982
1	1708	9983
1	1697	9984
1	1686	9985
1	1677	9986
1	1668	9987
1	1660	9988
1	1655	9989
1	1647	9990
1	1645	9991
1	1641	9992
1	1644	9993
1	1651	9994
1	1661	9995
1	1667	9996
1	1673	9997
1	1678	9998
1	1679	9999
1	1674	9980
1	1674	9981
1	1672	9982
1	1679	9983
1	1677	9984
1	1668	9985
1	1661	9986
1	1655	9987
1	1643	9988
1	1620	9989
1	1590	9990
1	1553	9991
1	1521	9992
1	1502	9993
1	1499	9994
1	1504	9995
1	1528	9996
1	1547	9997
1	1570	9998
1	1590	9999
1	1601	10000
1	1613	10001
1	1626	10002
1	1637	10003
1	1648	10004
1	1652	10005
1	1644	10006
1	1636	10007
1	1633	10008
1	1622	10009
1	1606	10010
1	1584	10011
1	1559	10012
1	1542	10013
1	1530	10014
1	1526	10015
1	1527	10016
1	1531	10017
1	1539	10018
1	1546	10019
1	1550	10020
1	1547	10021
1	1551	10022
1	1555	10023
1	1561	10024
1	1566	10025
1	1566	10026
1	1559	10027
1	1555	10028
1	1556	10029
1	1552	10030
1	1548	10031
1	1554	10032
1	1557	10033
1	1566	10034
1	1580	10035
1	1587	10036
1	1600	10037
1	1610	10038
1	1623	10039
1	1634	10040
1	1652	10041
1	1660	10042
1	1660	10043
1	1655	10044
1	1639	10045
1	1622	10046
1	1602	10047
1	1572	10048
1	1533	10049
1	1490	10050
1	1451	10051
1	1437	10052
1	1445	10053
1	1466	10054
1	1497	10055
1	1539	10056
1	1572	10057
1	1600	10058
1	1620	10059
1	1621	10060
1	1613	10061
1	1607	10062
1	1585	10063
1	1561	10064
1	1541	10065
1	1526	10066
1	1520	10067
1	1518	10068
1	1525	10069
1	1542	10070
1	1572	10071
1	1597	10072
1	1615	10073
1	1631	10074
1	1643	10075
1	1656	10076
1	1664	10077
1	1674	10078
1	1688	10079
1	1700	10080
1	1699	10081
1	1693	10082
1	1679	10083
1	1661	10084
1	1650	10085
1	1644	10086
1	1649	10087
1	1657	10088
1	1660	10089
1	1660	10090
1	1673	10091
1	1692	10092
