#Date:= 2024-10-01T15:16:13.200627
#Sampling Rate(Hz):= 1000
#Labels:= LOD	ECG	TS
1	1728	20
1	1716	21
1	1708	22
1	1694	23
1	1693	24
1	1699	25
1	1719	26
1	1736	27
1	1735	28
1	1712	29
1	1682	30
1	1649	31
1	1491	32
1	1376	33
1	1267	34
1	1167	35
1	1096	36
1	1051	37
1	1042	38
1	1068	39
1	1022	60
1	1123	61
1	1249	62
1	1395	63
1	1539	64
1	1668	65
1	1772	66
1	1843	67
1	1865	68
1	1843	69
1	1788	70
1	1701	71
1	1592	72
1	1474	73
1	1346	74
1	1241	75
1	1161	76
1	1111	77
1	1091	78
1	1098	79
1	1128	40
1	1215	41
1	1323	42
1	1445	43
1	1555	44
1	1651	45
1	1727	46
1	1769	47
1	1782	48
1	1764	49
1	1708	50
1	1620	51
1	1505	52
1	1382	53
1	1253	54
1	1126	55
1	1024	56
1	956	57
1	936	58
1	955	59
1	1135	100
1	1207	101
1	1301	102
1	1410	103
1	1512	104
1	1598	105
1	1669	106
1	1711	107
1	1724	108
1	1712	109
1	1677	110
1	1610	111
1	1539	112
1	1450	113
1	1356	114
1	1272	115
1	1201	116
1	1154	117
1	1136	118
1	1153	119
1	1205	100
1	1288	101
1	1380	102
1	1482	103
1	1582	104
1	1671	105
1	1737	106
1	1783	107
1	1795	108
1	1778	109
1	1727	110
1	1647	111
1	1533	112
1	1403	113
1	1273	114
1	1161	115
1	1071	116
1	1013	117
1	1005	118
1	1040	119
1	1110	120
1	1209	121
1	1320	122
1	1438	123
1	1554	124
1	1656	125
1	1738	126
1	1796	127
1	1823	128
1	1815	129
1	1764	130
1	1687	131
1	1580	132
1	1466	133
1	1347	134
1	1243	135
1	1162	136
1	1116	137
1	1105	138
1	1122	139
1	1175	140
1	1246	141
1	1343	142
1	1454	143
1	1571	144
1	1681	145
1	1770	146
1	1831	147
1	1852	148
1	1836	149
1	1776	150
1	1686	151
1	1581	152
1	1468	153
1	1359	154
1	1261	155
1	1184	156
1	1135	157
1	1123	158
1	1147	159
1	1206	160
1	1298	161
1	1402	162
1	1513	163
1	1623	164
1	1724	165
1	1798	166
1	1856	167
1	1869	168
1	1852	169
1	1799	170
1	1717	171
1	1608	172
1	1491	173
1	1365	174
1	1259	175
1	1180	176
1	1123	177
1	1101	178
1	1112	179
1	1171	180
1	1265	181
1	1372	182
1	1490	183
1	1596	184
1	1700	185
1	1790	186
1	1849	187
1	1869	188
1	1859	189
1	1818	190
1	1739	191
1	1645	192
1	1549	193
1	1448	194
1	1350	195
1	1272	196
1	1217	197
1	1189	198
1	1197	199
1	1243	200
1	1327	201
1	1428	202
1	1535	203
1	1657	204
1	1777	205
1	1883	206
1	1946	207
1	1974	208
1	1961	209
1	1909	210
1	1817	211
1	1704	212
1	1580	213
1	1449	214
1	1335	215
1	1259	216
1	1214	217
1	1201	218
1	1213	219
1	1248	220
1	1312	221
1	1398	222
1	1503	223
1	1613	224
1	1724	225
1	1815	226
1	1865	227
1	1872	228
1	1848	229
1	1779	230
1	1686	231
1	1564	232
1	1422	233
1	1319	234
1	1214	235
1	1133	236
1	1084	237
1	1080	238
1	1110	239
1	1206	280
1	1318	281
1	1437	282
1	1557	283
1	1682	284
1	1788	285
1	1872	286
1	1922	287
1	1926	288
1	1895	289
1	1817	290
1	1701	291
1	1577	292
1	1451	293
1	1329	294
1	1222	295
1	1136	296
1	1084	297
1	1071	298
1	1098	299
1	1177	240
1	1267	241
1	1382	242
1	1506	243
1	1634	244
1	1744	245
1	1827	246
1	1872	247
1	1884	248
1	1856	249
1	1790	250
1	1695	251
1	1577	252
1	1455	253
1	1335	254
1	1237	255
1	1152	256
1	1111	257
1	1103	258
1	1132	259
1	1188	260
1	1267	261
1	1364	262
1	1476	263
1	1581	264
1	1682	265
1	1760	266
1	1801	267
1	1816	268
1	1786	269
1	1729	270
1	1642	271
1	1538	272
1	1432	273
1	1319	274
1	1215	275
1	1139	276
1	1098	277
1	1092	278
1	1129	279
1	1161	300
1	1250	301
1	1358	302
1	1477	303
1	1597	304
1	1707	305
1	1796	306
1	1865	307
1	1894	308
1	1893	309
1	1857	310
1	1791	311
1	1697	312
1	1597	313
1	1500	314
1	1415	315
1	1343	316
1	1314	317
1	1319	318
1	1363	319
1	1446	320
1	1557	321
1	1686	322
1	1819	323
1	1956	324
1	2078	325
1	2183	326
1	2260	327
1	2298	328
1	2303	329
1	2274	330
1	2212	331
1	2119	332
1	1994	333
1	1901	334
1	1796	335
1	1712	336
1	1661	337
1	1659	338
1	1690	339
1	1764	340
1	1865	341
1	1980	342
1	2094	343
1	2195	344
1	2279	345
1	2341	346
1	2364	347
1	2336	348
1	2271	349
1	2168	350
1	2031	351
1	1872	352
1	1699	353
1	1529	354
1	1373	355
1	1257	356
1	1180	357
1	1147	358
1	1157	359
1	1207	360
1	1297	361
1	1416	362
1	1538	363
1	1660	364
1	1772	365
1	1869	366
1	1927	367
1	1949	368
1	1934	369
1	1881	370
1	1790	371
1	1672	372
1	1548	373
1	1420	374
1	1297	375
1	1215	376
1	1159	377
1	1140	378
1	1161	379
1	1215	380
1	1301	381
1	1410	382
1	1521	383
1	1643	384
1	1738	385
1	1825	386
1	1880	387
1	1895	388
1	1872	389
1	1816	390
1	1730	391
1	1625	392
1	1516	393
1	1405	394
1	1305	395
1	1228	396
1	1175	397
1	1154	398
1	1163	399
1	1210	400
1	1286	401
1	1377	402
1	1502	403
1	1632	404
1	1751	405
1	1850	406
1	1917	407
1	1936	408
1	1922	409
1	1877	410
1	1799	411
1	1697	412
1	1579	413
1	1449	414
1	1328	415
1	1241	416
1	1188	417
1	1175	418
1	1197	419
1	1253	420
1	1337	421
1	1443	422
1	1555	423
1	1672	424
1	1777	425
1	1861	426
1	1915	427
1	1937	428
1	1922	429
1	1871	430
1	1791	431
1	1686	432
1	1577	433
1	1464	434
1	1364	435
1	1292	436
1	1253	437
1	1240	438
1	1255	439
1	1307	440
1	1399	441
1	1512	442
1	1634	443
1	1753	444
1	1862	445
1	1946	446
1	1985	447
1	1996	448
1	1967	449
1	1898	450
1	1793	451
1	1672	452
1	1543	453
1	1423	454
1	1302	455
1	1215	456
1	1165	457
1	1161	458
1	1190	459
1	1256	460
1	1351	461
1	1455	462
1	1572	463
1	1687	464
1	1791	465
1	1875	466
1	1938	467
1	1956	468
1	1942	469
1	1895	470
1	1817	471
1	1713	472
1	1607	473
1	1493	474
1	1396	475
1	1319	476
1	1269	477
1	1262	478
1	1287	479
1	1351	480
1	1453	481
1	1564	482
1	1672	483
1	1778	484
1	1862	485
1	1935	486
1	1985	487
1	2000	488
1	1985	489
1	1937	490
1	1855	491
1	1738	492
1	1623	493
1	1503	494
1	1400	495
1	1324	496
1	1276	497
1	1262	498
1	1277	499
1	1325	500
1	1409	501
1	1505	502
1	1616	503
1	1735	504
1	1852	505
1	1944	506
1	1998	507
1	2017	508
1	2009	509
1	1965	510
1	1886	511
1	1790	512
1	1679	513
1	1561	514
1	1451	515
1	1359	516
1	1297	517
1	1278	518
1	1297	519
1	1370	540
1	1456	541
1	1561	542
1	1679	543
1	1792	544
1	1903	545
1	1981	546
1	2032	547
1	2052	548
1	2043	549
1	1999	550
1	1921	551
1	1813	552
1	1697	553
1	1592	554
1	1507	555
1	1453	556
1	1437	557
1	1443	558
1	1467	559
1	1354	520
1	1440	521
1	1539	522
1	1648	523
1	1759	524
1	1856	525
1	1937	526
1	1983	527
1	2001	528
1	1988	529
1	1942	530
1	1868	531
1	1766	532
1	1638	533
1	1550	534
1	1448	535
1	1366	536
1	1317	537
1	1304	538
1	1319	539
1	1512	560
1	1587	561
1	1686	562
1	1798	563
1	1917	564
1	2013	565
1	2082	566
1	2109	567
1	2106	568
1	2073	569
1	2004	570
1	1909	571
1	1788	572
1	1656	573
1	1528	574
1	1418	575
1	1332	576
1	1291	577
1	1282	578
1	1313	579
1	1327	600
1	1412	601
1	1511	602
1	1618	603
1	1725	604
1	1824	605
1	1900	606
1	1953	607
1	1974	608
1	1961	609
1	1919	610
1	1845	611
1	1740	612
1	1635	613
1	1526	614
1	1425	615
1	1346	616
1	1302	617
1	1289	618
1	1305	619
1	1377	580
1	1485	581
1	1600	582
1	1727	583
1	1857	584
1	1953	585
1	2025	586
1	2062	587
1	2064	588
1	2026	589
1	1958	590
1	1862	591
1	1750	592
1	1638	593
1	1529	594
1	1429	595
1	1345	596
1	1286	597
1	1267	598
1	1279	599
1	1346	620
1	1422	621
1	1508	622
1	1607	623
1	1702	624
1	1788	625
1	1856	626
1	1891	627
1	1895	628
1	1867	629
1	1803	630
1	1724	631
1	1615	632
1	1480	633
1	1395	634
1	1294	635
1	1225	636
1	1188	637
1	1189	638
1	1219	639
1	1202	660
1	1269	661
1	1358	662
1	1454	663
1	1559	664
1	1660	665
1	1753	666
1	1830	667
1	1868	668
1	1870	669
1	1843	670
1	1779	671
1	1691	672
1	1593	673
1	1476	674
1	1367	675
1	1286	676
1	1229	677
1	1209	678
1	1220	679
1	1280	640
1	1361	641
1	1466	642
1	1574	643
1	1679	644
1	1766	645
1	1841	646
1	1872	647
1	1878	648
1	1852	649
1	1796	650
1	1712	651
1	1608	652
1	1503	653
1	1398	654
1	1305	655
1	1239	656
1	1184	657
1	1160	658
1	1165	659
1	1267	680
1	1346	681
1	1449	682
1	1553	683
1	1661	684
1	1755	685
1	1832	686
1	1884	687
1	1895	688
1	1869	689
1	1809	690
1	1728	691
1	1628	692
1	1512	693
1	1395	694
1	1283	695
1	1202	696
1	1153	697
1	1143	698
1	1174	699
1	1238	700
1	1325	701
1	1432	702
1	1541	703
1	1655	704
1	1752	705
1	1843	706
1	1898	707
1	1922	708
1	1908	709
1	1858	710
1	1767	711
1	1656	712
1	1529	713
1	1402	714
1	1293	715
1	1215	716
1	1167	717
1	1159	718
1	1183	719
1	1303	740
1	1384	741
1	1493	742
1	1604	743
1	1716	744
1	1829	745
1	1914	746
1	1965	747
1	1985	748
1	1965	749
1	1908	750
1	1818	751
1	1706	752
1	1586	753
1	1474	754
1	1357	755
1	1267	756
1	1211	757
1	1185	758
1	1196	759
1	1242	720
1	1328	721
1	1436	722
1	1542	723
1	1657	724
1	1763	725
1	1850	726
1	1906	727
1	1922	728
1	1904	729
1	1855	730
1	1769	731
1	1673	732
1	1566	733
1	1459	734
1	1355	735
1	1278	736
1	1238	737
1	1220	738
1	1246	739
1	1305	780
1	1384	781
1	1477	782
1	1577	783
1	1679	784
1	1765	785
1	1839	786
1	1873	787
1	1881	788
1	1854	789
1	1789	790
1	1708	791
1	1609	792
1	1518	793
1	1423	794
1	1330	795
1	1269	796
1	1235	797
1	1236	798
1	1269	799
1	1251	760
1	1345	761
1	1453	762
1	1570	763
1	1686	764
1	1790	765
1	1880	766
1	1940	767
1	1958	768
1	1939	769
1	1880	770
1	1791	771
1	1690	772
1	1582	773
1	1476	774
1	1373	775
1	1297	776
1	1248	777
1	1238	778
1	1256	779
1	1333	800
1	1429	801
1	1536	802
1	1647	803
1	1757	804
1	1856	805
1	1925	806
1	1963	807
1	1970	808
1	1942	809
1	1880	810
1	1787	811
1	1691	812
1	1587	813
1	1479	814
1	1381	815
1	1307	816
1	1257	817
1	1242	818
1	1267	819
1	1288	840
1	1373	841
1	1474	842
1	1579	843
1	1680	844
1	1775	845
1	1856	846
1	1916	847
1	1944	848
1	1934	849
1	1878	850
1	1788	851
1	1665	852
1	1545	853
1	1428	854
1	1326	855
1	1254	856
1	1225	857
1	1226	858
1	1260	859
1	1331	820
1	1427	821
1	1531	822
1	1643	823
1	1746	824
1	1839	825
1	1913	826
1	1953	827
1	1962	828
1	1935	829
1	1875	830
1	1789	831
1	1677	832
1	1539	833
1	1450	834
1	1337	835
1	1256	836
1	1214	837
1	1214	838
1	1235	839
1	1346	880
1	1422	881
1	1503	882
1	1598	883
1	1703	884
1	1812	885
1	1903	886
1	1965	887
1	1999	888
1	1999	889
1	1961	890
1	1894	891
1	1795	892
1	1689	893
1	1575	894
1	1470	895
1	1373	896
1	1303	897
1	1275	898
1	1292	899
1	1320	860
1	1411	861
1	1507	862
1	1607	863
1	1707	864
1	1791	865
1	1862	866
1	1896	867
1	1904	868
1	1885	869
1	1837	870
1	1769	871
1	1683	872
1	1587	873
1	1491	874
1	1405	875
1	1337	876
1	1292	877
1	1283	878
1	1302	879
1	1346	900
1	1437	901
1	1539	902
1	1648	903
1	1756	904
1	1855	905
1	1926	906
1	1973	907
1	1986	908
1	1967	909
1	1906	910
1	1817	911
1	1693	912
1	1571	913
1	1446	914
1	1332	915
1	1255	916
1	1211	917
1	1203	918
1	1231	919
1	1292	920
1	1391	921
1	1505	922
1	1626	923
1	1750	924
1	1863	925
1	1950	926
1	2000	927
1	2016	928
1	1988	929
1	1922	930
1	1826	931
1	1698	932
1	1549	933
1	1465	934
1	1370	935
1	1292	936
1	1239	937
1	1228	938
1	1243	939
1	1301	940
1	1396	941
1	1513	942
1	1634	943
1	1760	944
1	1873	945
1	1962	946
1	2017	947
1	2037	948
1	2017	949
1	1967	950
1	1878	951
1	1764	952
1	1649	953
1	1529	954
1	1431	955
1	1351	956
1	1294	957
1	1278	958
1	1298	959
1	1359	960
1	1458	961
1	1577	962
1	1699	963
1	1831	964
1	1948	965
1	2043	966
1	2105	967
1	2119	968
1	2093	969
1	2025	970
1	1921	971
1	1783	972
1	1645	973
1	1505	974
1	1377	975
1	1283	976
1	1216	977
1	1194	978
1	1216	979
1	1281	980
1	1372	981
1	1485	982
1	1605	983
1	1726	984
1	1842	985
1	1934	986
1	1998	987
1	2032	988
1	2031	989
1	1990	990
1	1917	991
1	1816	992
1	1698	993
1	1581	994
1	1476	995
1	1392	996
1	1331	997
1	1304	998
1	1314	999
1	1359	1000
1	1440	1001
1	1538	1002
1	1652	1003
1	1777	1004
1	1891	1005
1	1985	1006
1	2039	1007
1	2050	1008
1	2025	1009
1	1961	1010
1	1873	1011
1	1764	1012
1	1652	1013
1	1539	1014
1	1440	1015
1	1359	1016
1	1307	1017
1	1296	1018
1	1321	1019
1	1376	1020
1	1466	1021
1	1559	1022
1	1662	1023
1	1768	1024
1	1868	1025
1	1946	1026
1	2000	1027
1	2024	1028
1	2019	1029
1	1978	1030
1	1904	1031
1	1791	1032
1	1668	1033
1	1545	1034
1	1437	1035
1	1356	1036
1	1314	1037
1	1295	1038
1	1319	1039
1	1384	1060
1	1463	1061
1	1553	1062
1	1656	1063
1	1764	1064
1	1871	1065
1	1962	1066
1	2026	1067
1	2048	1068
1	2035	1069
1	1995	1070
1	1926	1071
1	1841	1072
1	1737	1073
1	1631	1074
1	1533	1075
1	1454	1076
1	1399	1077
1	1375	1078
1	1397	1079
1	1372	1040
1	1456	1041
1	1551	1042
1	1652	1043
1	1763	1044
1	1869	1045
1	1961	1046
1	2025	1047
1	2052	1048
1	2045	1049
1	2002	1050
1	1922	1051
1	1824	1052
1	1710	1053
1	1597	1054
1	1503	1055
1	1423	1056
1	1359	1057
1	1332	1058
1	1342	1059
1	1446	1080
1	1529	1081
1	1623	1082
1	1724	1083
1	1831	1084
1	1920	1085
1	1988	1086
1	2030	1087
1	2041	1088
1	2025	1089
1	1971	1090
1	1895	1091
1	1798	1092
1	1706	1093
1	1607	1094
1	1512	1095
1	1437	1096
1	1376	1097
1	1353	1098
1	1359	1099
1	1398	1100
1	1463	1101
1	1555	1102
1	1660	1103
1	1769	1104
1	1873	1105
1	1953	1106
1	1993	1107
1	2004	1108
1	1979	1109
1	1923	1110
1	1857	1111
1	1764	1112
1	1669	1113
1	1572	1114
1	1492	1115
1	1437	1116
1	1412	1117
1	1420	1118
1	1454	1119
1	1520	1120
1	1607	1121
1	1701	1122
1	1803	1123
1	1908	1124
1	2000	1125
1	2071	1126
1	2109	1127
1	2105	1128
1	2066	1129
1	1998	1130
1	1898	1131
1	1774	1132
1	1629	1133
1	1541	1134
1	1441	1135
1	1367	1136
1	1322	1137
1	1312	1138
1	1338	1139
1	1409	1140
1	1490	1141
1	1600	1142
1	1718	1143
1	1840	1144
1	1953	1145
1	2039	1146
1	2094	1147
1	2116	1148
1	2105	1149
1	2061	1150
1	1987	1151
1	1886	1152
1	1777	1153
1	1665	1154
1	1566	1155
1	1485	1156
1	1438	1157
1	1424	1158
1	1437	1159
1	1488	1180
1	1556	1181
1	1646	1182
1	1751	1183
1	1868	1184
1	1970	1185
1	2056	1186
1	2111	1187
1	2132	1188
1	2118	1189
1	2066	1190
1	1976	1191
1	1868	1192
1	1744	1193
1	1625	1194
1	1525	1195
1	1449	1196
1	1398	1197
1	1396	1198
1	1433	1199
1	1479	1160
1	1548	1161
1	1635	1162
1	1737	1163
1	1843	1164
1	1936	1165
1	2013	1166
1	2058	1167
1	2070	1168
1	2050	1169
1	1998	1170
1	1931	1171
1	1849	1172
1	1754	1173
1	1660	1174
1	1570	1175
1	1502	1176
1	1449	1177
1	1430	1178
1	1442	1179
1	1504	1200
1	1607	1201
1	1715	1202
1	1836	1203
1	1950	1204
1	2052	1205
1	2129	1206
1	2181	1207
1	2199	1208
1	2183	1209
1	2120	1210
1	2022	1211
1	1893	1212
1	1751	1213
1	1607	1214
1	1476	1215
1	1369	1216
1	1292	1217
1	1256	1218
1	1264	1219
1	1316	1220
1	1413	1221
1	1534	1222
1	1671	1223
1	1815	1224
1	1938	1225
1	2042	1226
1	2106	1227
1	2135	1228
1	2130	1229
1	2078	1230
1	1995	1231
1	1872	1232
1	1715	1233
1	1625	1234
1	1514	1235
1	1424	1236
1	1366	1237
1	1346	1238
1	1356	1239
1	1405	1240
1	1479	1241
1	1575	1242
1	1682	1243
1	1794	1244
1	1907	1245
1	1994	1246
1	2052	1247
1	2076	1248
1	2058	1249
1	2012	1250
1	1931	1251
1	1836	1252
1	1730	1253
1	1629	1254
1	1534	1255
1	1460	1256
1	1409	1257
1	1384	1258
1	1398	1259
1	1437	1260
1	1510	1261
1	1607	1262
1	1710	1263
1	1817	1264
1	1903	1265
1	1970	1266
1	2005	1267
1	2011	1268
1	1987	1269
1	1927	1270
1	1854	1271
1	1746	1272
1	1642	1273
1	1538	1274
1	1446	1275
1	1374	1276
1	1332	1277
1	1319	1278
1	1337	1279
1	1569	1300
1	1652	1301
1	1749	1302
1	1860	1303
1	1976	1304
1	2089	1305
1	2192	1306
1	2271	1307
1	2307	1308
1	2307	1309
1	2263	1310
1	2184	1311
1	2089	1312
1	1991	1313
1	1886	1314
1	1796	1315
1	1740	1316
1	1712	1317
1	1729	1318
1	1782	1319
1	1403	1280
1	1503	1281
1	1628	1282
1	1751	1283
1	1872	1284
1	1978	1285
1	2060	1286
1	2106	1287
1	2125	1288
1	2105	1289
1	2053	1290
1	1979	1291
1	1882	1292
1	1777	1293
1	1675	1294
1	1581	1295
1	1513	1296
1	1476	1297
1	1476	1298
1	1510	1299
1	1874	1320
1	2000	1321
1	2131	1322
1	2273	1323
1	2409	1324
1	2531	1325
1	2639	1326
1	2716	1327
1	2756	1328
1	2761	1329
1	2725	1330
1	2645	1331
1	2525	1332
1	2377	1333
1	2209	1334
1	2052	1335
1	1908	1336
1	1800	1337
1	1716	1338
1	1685	1339
1	1450	1380
1	1529	1381
1	1620	1382
1	1724	1383
1	1839	1384
1	1940	1385
1	2026	1386
1	2086	1387
1	2112	1388
1	2105	1389
1	2066	1390
1	1996	1391
1	1899	1392
1	1788	1393
1	1669	1394
1	1561	1395
1	1476	1396
1	1409	1397
1	1380	1398
1	1384	1399
1	1681	1360
1	1710	1361
1	1755	1362
1	1822	1363
1	1895	1364
1	1963	1365
1	2025	1366
1	2061	1367
1	2070	1368
1	2051	1369
1	1997	1370
1	1911	1371
1	1816	1372
1	1703	1373
1	1595	1374
1	1505	1375
1	1437	1376
1	1394	1377
1	1379	1378
1	1403	1379
1	1494	1400
1	1586	1401
1	1692	1402
1	1800	1403
1	1902	1404
1	1989	1405
1	2053	1406
1	2087	1407
1	2087	1408
1	2061	1409
1	2000	1410
1	1922	1411
1	1822	1412
1	1718	1413
1	1621	1414
1	1537	1415
1	1467	1416
1	1422	1417
1	1402	1418
1	1418	1419
1	1433	1380
1	1508	1381
1	1600	1382
1	1695	1383
1	1793	1384
1	1891	1385
1	1964	1386
1	2019	1387
1	2037	1388
1	2017	1389
1	1962	1390
1	1883	1391
1	1777	1392
1	1674	1393
1	1567	1394
1	1474	1395
1	1412	1396
1	1377	1397
1	1384	1398
1	1425	1399
1	1507	1440
1	1591	1441
1	1695	1442
1	1809	1443
1	1922	1444
1	2028	1445
1	2097	1446
1	2131	1447
1	2134	1448
1	2111	1449
1	2052	1450
1	1965	1451
1	1856	1452
1	1741	1453
1	1632	1454
1	1529	1455
1	1450	1456
1	1410	1457
1	1402	1458
1	1432	1459
1	1471	1420
1	1555	1421
1	1657	1422
1	1764	1423
1	1877	1424
1	1971	1425
1	2052	1426
1	2093	1427
1	2106	1428
1	2088	1429
1	2037	1430
1	1958	1431
1	1850	1432
1	1701	1433
1	1624	1434
1	1530	1435
1	1464	1436
1	1428	1437
1	1427	1438
1	1450	1439
1	1490	1460
1	1572	1461
1	1673	1462
1	1782	1463
1	1900	1464
1	2012	1465
1	2099	1466
1	2140	1467
1	2146	1468
1	2115	1469
1	2056	1470
1	1975	1471
1	1869	1472
1	1750	1473
1	1631	1474
1	1531	1475
1	1452	1476
1	1409	1477
1	1398	1478
1	1424	1479
1	1484	1480
1	1579	1481
1	1682	1482
1	1791	1483
1	1908	1484
1	2003	1485
1	2089	1486
1	2145	1487
1	2172	1488
1	2168	1489
1	2127	1490
1	2052	1491
1	1949	1492
1	1841	1493
1	1712	1494
1	1603	1495
1	1521	1496
1	1464	1497
1	1448	1498
1	1463	1499
1	1516	1500
1	1607	1501
1	1714	1502
1	1832	1503
1	1949	1504
1	2055	1505
1	2145	1506
1	2208	1507
1	2234	1508
1	2210	1509
1	2157	1510
1	2070	1511
1	1962	1512
1	1852	1513
1	1736	1514
1	1636	1515
1	1564	1516
1	1512	1517
1	1492	1518
1	1503	1519
1	1546	1520
1	1625	1521
1	1724	1522
1	1843	1523
1	1961	1524
1	2068	1525
1	2155	1526
1	2201	1527
1	2217	1528
1	2205	1529
1	2157	1530
1	2089	1531
1	1982	1532
1	1872	1533
1	1746	1534
1	1638	1535
1	1546	1536
1	1486	1537
1	1465	1538
1	1478	1539
1	1526	1540
1	1594	1541
1	1686	1542
1	1785	1543
1	1895	1544
1	1998	1545
1	2083	1546
1	2156	1547
1	2192	1548
1	2193	1549
1	2168	1550
1	2102	1551
1	2013	1552
1	1911	1553
1	1796	1554
1	1690	1555
1	1607	1556
1	1537	1557
1	1505	1558
1	1513	1559
1	1560	1560
1	1647	1561
1	1762	1562
1	1878	1563
1	1994	1564
1	2097	1565
1	2178	1566
1	2233	1567
1	2247	1568
1	2230	1569
1	2169	1570
1	2079	1571
1	1962	1572
1	1841	1573
1	1707	1574
1	1593	1575
1	1508	1576
1	1451	1577
1	1436	1578
1	1451	1579
1	1511	1580
1	1598	1581
1	1708	1582
1	1827	1583
1	1943	1584
1	2043	1585
1	2117	1586
1	2152	1587
1	2156	1588
1	2127	1589
1	2060	1590
1	1974	1591
1	1861	1592
1	1746	1593
1	1634	1594
1	1531	1595
1	1452	1596
1	1400	1597
1	1384	1598
1	1403	1599
1	1451	1600
1	1529	1601
1	1610	1602
1	1710	1603
1	1820	1604
1	1920	1605
1	2013	1606
1	2076	1607
1	2103	1608
1	2100	1609
1	2057	1610
1	1978	1611
1	1875	1612
1	1760	1613
1	1638	1614
1	1529	1615
1	1440	1616
1	1374	1617
1	1360	1618
1	1380	1619
1	1375	1640
1	1446	1641
1	1529	1642
1	1620	1643
1	1712	1644
1	1803	1645
1	1883	1646
1	1935	1647
1	1959	1648
1	1948	1649
1	1905	1650
1	1831	1651
1	1738	1652
1	1635	1653
1	1533	1654
1	1436	1655
1	1353	1656
1	1299	1657
1	1278	1658
1	1291	1659
1	1436	1620
1	1520	1621
1	1616	1622
1	1717	1623
1	1829	1624
1	1922	1625
1	2000	1626
1	2052	1627
1	2070	1628
1	2063	1629
1	2021	1630
1	1948	1631
1	1851	1632
1	1738	1633
1	1625	1634
1	1517	1635
1	1430	1636
1	1364	1637
1	1332	1638
1	1337	1639
1	1342	1660
1	1433	1661
1	1537	1662
1	1659	1663
1	1786	1664
1	1903	1665
1	1997	1666
1	2045	1667
1	2054	1668
1	2034	1669
1	1976	1670
1	1890	1671
1	1773	1672
1	1659	1673
1	1541	1674
1	1436	1675
1	1348	1676
1	1288	1677
1	1267	1678
1	1285	1679
1	1341	1680
1	1442	1681
1	1554	1682
1	1670	1683
1	1790	1684
1	1896	1685
1	1986	1686
1	2048	1687
1	2070	1688
1	2052	1689
1	1998	1690
1	1908	1691
1	1785	1692
1	1659	1693
1	1530	1694
1	1424	1695
1	1346	1696
1	1297	1697
1	1292	1698
1	1321	1699
1	1383	1700
1	1480	1701
1	1587	1702
1	1699	1703
1	1812	1704
1	1907	1705
1	1975	1706
1	2001	1707
1	2000	1708
1	1965	1709
1	1898	1710
1	1818	1711
1	1716	1712
1	1613	1713
1	1508	1714
1	1415	1715
1	1344	1716
1	1301	1717
1	1292	1718
1	1318	1719
1	1376	1720
1	1471	1721
1	1571	1722
1	1683	1723
1	1803	1724
1	1911	1725
1	2000	1726
1	2052	1727
1	2064	1728
1	2042	1729
1	1987	1730
1	1899	1731
1	1783	1732
1	1665	1733
1	1551	1734
1	1450	1735
1	1368	1736
1	1321	1737
1	1308	1738
1	1324	1739
1	1424	1760
1	1512	1761
1	1616	1762
1	1725	1763
1	1843	1764
1	1940	1765
1	2014	1766
1	2052	1767
1	2051	1768
1	2019	1769
1	1955	1770
1	1869	1771
1	1755	1772
1	1636	1773
1	1518	1774
1	1422	1775
1	1346	1776
1	1306	1777
1	1299	1778
1	1323	1779
1	1372	1740
1	1453	1741
1	1549	1742
1	1656	1743
1	1764	1744
1	1881	1745
1	1974	1746
1	2030	1747
1	2052	1748
1	2034	1749
1	1981	1750
1	1904	1751
1	1794	1752
1	1686	1753
1	1575	1754
1	1474	1755
1	1404	1756
1	1354	1757
1	1343	1758
1	1364	1759
1	1376	1780
1	1463	1781
1	1555	1782
1	1667	1783
1	1788	1784
1	1895	1785
1	1979	1786
1	2030	1787
1	2048	1788
1	2025	1789
1	1971	1790
1	1890	1791
1	1782	1792
1	1672	1793
1	1555	1794
1	1450	1795
1	1368	1796
1	1308	1797
1	1294	1798
1	1317	1799
1	1377	1800
1	1476	1801
1	1589	1802
1	1710	1803
1	1837	1804
1	1950	1805
1	2040	1806
1	2091	1807
1	2094	1808
1	2057	1809
1	1982	1810
1	1883	1811
1	1760	1812
1	1644	1813
1	1529	1814
1	1436	1815
1	1368	1816
1	1326	1817
1	1319	1818
1	1342	1819
1	1403	1820
1	1490	1821
1	1592	1822
1	1697	1823
1	1801	1824
1	1898	1825
1	1974	1826
1	2017	1827
1	2032	1828
1	2012	1829
1	1955	1830
1	1874	1831
1	1763	1832
1	1652	1833
1	1533	1834
1	1429	1835
1	1337	1836
1	1281	1837
1	1272	1838
1	1305	1839
1	1372	1840
1	1480	1841
1	1598	1842
1	1725	1843
1	1852	1844
1	1953	1845
1	2026	1846
1	2066	1847
1	2068	1848
1	2041	1849
1	1973	1850
1	1873	1851
1	1753	1852
1	1631	1853
1	1512	1854
1	1412	1855
1	1334	1856
1	1286	1857
1	1279	1858
1	1306	1859
1	1372	1860
1	1476	1861
1	1585	1862
1	1710	1863
1	1839	1864
1	1948	1865
1	2029	1866
1	2077	1867
1	2086	1868
1	2056	1869
1	1999	1870
1	1910	1871
1	1791	1872
1	1670	1873
1	1548	1874
1	1437	1875
1	1353	1876
1	1297	1877
1	1275	1878
1	1285	1879
1	1333	1880
1	1424	1881
1	1534	1882
1	1655	1883
1	1780	1884
1	1895	1885
1	1976	1886
1	2024	1887
1	2042	1888
1	2025	1889
1	1978	1890
1	1908	1891
1	1809	1892
1	1698	1893
1	1584	1894
1	1487	1895
1	1412	1896
1	1367	1897
1	1358	1898
1	1384	1899
1	1449	1900
1	1534	1901
1	1633	1902
1	1736	1903
1	1840	1904
1	1922	1905
1	1989	1906
1	2016	1907
1	2004	1908
1	1960	1909
1	1890	1910
1	1794	1911
1	1686	1912
1	1573	1913
1	1459	1914
1	1360	1915
1	1294	1916
1	1266	1917
1	1276	1918
1	1318	1919
1	1438	1940
1	1530	1941
1	1632	1942
1	1737	1943
1	1847	1944
1	1939	1945
1	2012	1946
1	2055	1947
1	2064	1948
1	2038	1949
1	1976	1950
1	1890	1951
1	1767	1952
1	1647	1953
1	1517	1954
1	1417	1955
1	1337	1956
1	1291	1957
1	1274	1958
1	1288	1959
1	1384	1920
1	1488	1921
1	1590	1922
1	1691	1923
1	1796	1924
1	1898	1925
1	1985	1926
1	2039	1927
1	2052	1928
1	2026	1929
1	1966	1930
1	1877	1931
1	1769	1932
1	1665	1933
1	1572	1934
1	1487	1935
1	1421	1936
1	1377	1937
1	1363	1938
1	1384	1939
1	1337	1960
1	1427	1961
1	1529	1962
1	1643	1963
1	1757	1964
1	1860	1965
1	1944	1966
1	1986	1967
1	1999	1968
1	1983	1969
1	1938	1970
1	1868	1971
1	1769	1972
1	1665	1973
1	1555	1974
1	1456	1975
1	1382	1976
1	1334	1977
1	1325	1978
1	1347	1979
1	1408	1980
1	1495	1981
1	1594	1982
1	1700	1983
1	1813	1984
1	1911	1985
1	1993	1986
1	2052	1987
1	2076	1988
1	2061	1989
1	2012	1990
1	1930	1991
1	1818	1992
1	1701	1993
1	1584	1994
1	1479	1995
1	1404	1996
1	1348	1997
1	1331	1998
1	1346	1999
1	1401	2000
1	1485	2001
1	1586	2002
1	1695	2003
1	1800	2004
1	1895	2005
1	1971	2006
1	2012	2007
1	2026	2008
1	2013	2009
1	1964	2010
1	1893	2011
1	1788	2012
1	1678	2013
1	1566	2014
1	1469	2015
1	1394	2016
1	1344	2017
1	1330	2018
1	1346	2019
1	1399	2020
1	1482	2021
1	1579	2022
1	1688	2023
1	1807	2024
1	1912	2025
1	2001	2026
1	2050	2027
1	2057	2028
1	2025	2029
1	1957	2030
1	1859	2031
1	1733	2032
1	1616	2033
1	1503	2034
1	1409	2035
1	1340	2036
1	1304	2037
1	1301	2038
1	1324	2039
1	1394	2040
1	1480	2041
1	1598	2042
1	1712	2043
1	1824	2044
1	1923	2045
1	2002	2046
1	2052	2047
1	2068	2048
1	2048	2049
1	1991	2050
1	1909	2051
1	1803	2052
1	1695	2053
1	1581	2054
1	1476	2055
1	1399	2056
1	1345	2057
1	1332	2058
1	1354	2059
1	1415	2060
1	1499	2061
1	1603	2062
1	1712	2063
1	1823	2064
1	1919	2065
1	1997	2066
1	2043	2067
1	2061	2068
1	2044	2069
1	1993	2070
1	1920	2071
1	1819	2072
1	1710	2073
1	1598	2074
1	1503	2075
1	1436	2076
1	1398	2077
1	1384	2078
1	1409	2079
1	1450	2100
1	1545	2101
1	1650	2102
1	1760	2103
1	1872	2104
1	1966	2105
1	2034	2106
1	2071	2107
1	2073	2108
1	2042	2109
1	1975	2110
1	1883	2111
1	1764	2112
1	1652	2113
1	1545	2114
1	1451	2115
1	1391	2116
1	1346	2117
1	1340	2118
1	1359	2119
1	1450	2080
1	1521	2081
1	1603	2082
1	1696	2083
1	1791	2084
1	1880	2085
1	1952	2086
1	1991	2087
1	1998	2088
1	1971	2089
1	1913	2090
1	1830	2091
1	1733	2092
1	1634	2093
1	1529	2094
1	1441	2095
1	1372	2096
1	1336	2097
1	1346	2098
1	1382	2099
1	1413	2120
1	1495	2121
1	1595	2122
1	1711	2123
1	1834	2124
1	1939	2125
1	2025	2126
1	2069	2127
1	2084	2128
1	2065	2129
1	2000	2130
1	1914	2131
1	1795	2132
1	1681	2133
1	1560	2134
1	1461	2135
1	1384	2136
1	1346	2137
1	1348	2138
1	1380	2139
1	1442	2140
1	1530	2141
1	1634	2142
1	1738	2143
1	1856	2144
1	1955	2145
1	2032	2146
1	2078	2147
1	2087	2148
1	2066	2149
1	2014	2150
1	1926	2151
1	1817	2152
1	1698	2153
1	1579	2154
1	1474	2155
1	1382	2156
1	1321	2157
1	1306	2158
1	1332	2159
1	1398	2160
1	1503	2161
1	1618	2162
1	1746	2163
1	1877	2164
1	1993	2165
1	2086	2166
1	2148	2167
1	2168	2168
1	2150	2169
1	2096	2170
1	2010	2171
1	1895	2172
1	1769	2173
1	1651	2174
1	1542	2175
1	1459	2176
1	1400	2177
1	1373	2178
1	1384	2179
1	1436	2180
1	1513	2181
1	1608	2182
1	1716	2183
1	1834	2184
1	1935	2185
1	2019	2186
1	2066	2187
1	2080	2188
1	2063	2189
1	2009	2190
1	1931	2191
1	1832	2192
1	1723	2193
1	1618	2194
1	1526	2195
1	1458	2196
1	1419	2197
1	1414	2198
1	1450	2199
1	1526	2200
1	1623	2201
1	1724	2202
1	1834	2203
1	1936	2204
1	2026	2205
1	2105	2206
1	2142	2207
1	2142	2208
1	2107	2209
1	2039	2210
1	1940	2211
1	1828	2212
1	1711	2213
1	1592	2214
1	1487	2215
1	1403	2216
1	1346	2217
1	1341	2218
1	1368	2219
1	1424	2220
1	1503	2221
1	1597	2222
1	1705	2223
1	1821	2224
1	1922	2225
1	2000	2226
1	2052	2227
1	2063	2228
1	2041	2229
1	1979	2230
1	1890	2231
1	1764	2232
1	1647	2233
1	1533	2234
1	1437	2235
1	1357	2236
1	1314	2237
1	1289	2238
1	1300	2239
1	1333	2240
1	1412	2241
1	1505	2242
1	1618	2243
1	1740	2244
1	1858	2245
1	1950	2246
1	2006	2247
1	2029	2248
1	2025	2249
1	1985	2250
1	1913	2251
1	1814	2252
1	1703	2253
1	1592	2254
1	1499	2255
1	1424	2256
1	1374	2257
1	1364	2258
1	1384	2259
1	1445	2260
1	1525	2261
1	1610	2262
1	1704	2263
1	1800	2264
1	1882	2265
1	1949	2266
1	1989	2267
1	1995	2268
1	1970	2269
1	1916	2270
1	1845	2271
1	1751	2272
1	1654	2273
1	1553	2274
1	1466	2275
1	1400	2276
1	1350	2277
1	1338	2278
1	1355	2279
1	1406	2280
1	1487	2281
1	1581	2282
1	1688	2283
1	1802	2284
1	1907	2285
1	1991	2286
1	2044	2287
1	2065	2288
1	2052	2289
1	2001	2290
1	1919	2291
1	1803	2292
1	1685	2293
1	1561	2294
1	1450	2295
1	1367	2296
1	1314	2297
1	1296	2298
1	1319	2299
1	1382	2300
1	1484	2301
1	1611	2302
1	1752	2303
1	1896	2304
1	2019	2305
1	2127	2306
1	2196	2307
1	2237	2308
1	2246	2309
1	2210	2310
1	2163	2311
1	2096	2312
1	2014	2313
1	1923	2314
1	1845	2315
1	1778	2316
1	1738	2317
1	1730	2318
1	1751	2319
1	1815	2320
1	1903	2321
1	2008	2322
1	2126	2323
1	2257	2324
1	2377	2325
1	2486	2326
1	2550	2327
1	2584	2328
1	2587	2329
1	2557	2330
1	2503	2331
1	2419	2332
1	2330	2333
1	2219	2334
1	2115	2335
1	2017	2336
1	1926	2337
1	1854	2338
1	1791	2339
1	1402	2360
1	1485	2361
1	1584	2362
1	1693	2363
1	1808	2364
1	1906	2365
1	1983	2366
1	2027	2367
1	2048	2368
1	2034	2369
1	1989	2370
1	1921	2371
1	1826	2372
1	1713	2373
1	1598	2374
1	1494	2375
1	1409	2376
1	1347	2377
1	1327	2378
1	1341	2379
1	1750	2340
1	1738	2341
1	1757	2342
1	1791	2343
1	1832	2344
1	1875	2345
1	1904	2346
1	1922	2347
1	1922	2348
1	1908	2349
1	1867	2350
1	1796	2351
1	1710	2352
1	1616	2353
1	1521	2354
1	1437	2355
1	1372	2356
1	1332	2357
1	1322	2358
1	1346	2359
1	1400	2380
1	1490	2381
1	1586	2382
1	1691	2383
1	1798	2384
1	1895	2385
1	1971	2386
1	2014	2387
1	2021	2388
1	1999	2389
1	1940	2390
1	1851	2391
1	1741	2392
1	1633	2393
1	1517	2394
1	1424	2395
1	1351	2396
1	1308	2397
1	1301	2398
1	1332	2399
1	1402	2400
1	1503	2401
1	1609	2402
1	1728	2403
1	1854	2404
1	1961	2405
1	2050	2406
1	2105	2407
1	2115	2408
1	2088	2409
1	2028	2410
1	1939	2411
1	1826	2412
1	1712	2413
1	1604	2414
1	1503	2415
1	1433	2416
1	1377	2417
1	1359	2418
1	1373	2419
1	1435	2440
1	1517	2441
1	1612	2442
1	1713	2443
1	1817	2444
1	1899	2445
1	1968	2446
1	2013	2447
1	2026	2448
1	2012	2449
1	1974	2450
1	1906	2451
1	1818	2452
1	1716	2453
1	1616	2454
1	1527	2455
1	1459	2456
1	1418	2457
1	1409	2458
1	1431	2459
1	1417	2420
1	1481	2421
1	1571	2422
1	1673	2423
1	1788	2424
1	1895	2425
1	1975	2426
1	2025	2427
1	2040	2428
1	2021	2429
1	1967	2430
1	1895	2431
1	1786	2432
1	1680	2433
1	1572	2434
1	1452	2435
1	1403	2436
1	1359	2437
1	1349	2438
1	1376	2439
1	1496	2480
1	1581	2481
1	1679	2482
1	1777	2483
1	1885	2484
1	1974	2485
1	2052	2486
1	2091	2487
1	2104	2488
1	2079	2489
1	2024	2490
1	1945	2491
1	1842	2492
1	1725	2493
1	1604	2494
1	1499	2495
1	1418	2496
1	1372	2497
1	1363	2498
1	1382	2499
1	1440	2500
1	1529	2501
1	1634	2502
1	1746	2503
1	1862	2504
1	1962	2505
1	2052	2506
1	2109	2507
1	2133	2508
1	2126	2509
1	2082	2510
1	2011	2511
1	1916	2512
1	1802	2513
1	1682	2514
1	1572	2515
1	1489	2516
1	1430	2517
1	1420	2518
1	1445	2519
1	1485	2460
1	1575	2461
1	1670	2462
1	1769	2463
1	1872	2464
1	1957	2465
1	2021	2466
1	2053	2467
1	2054	2468
1	2024	2469
1	1961	2470
1	1879	2471
1	1773	2472
1	1671	2473
1	1571	2474
1	1485	2475
1	1427	2476
1	1397	2477
1	1398	2478
1	1432	2479
1	1503	2520
1	1594	2521
1	1697	2522
1	1802	2523
1	1910	2524
1	2002	2525
1	2078	2526
1	2120	2527
1	2129	2528
1	2102	2529
1	2038	2530
1	1947	2531
1	1837	2532
1	1720	2533
1	1618	2534
1	1529	2535
1	1469	2536
1	1435	2537
1	1431	2538
1	1469	2539
1	1585	2560
1	1661	2561
1	1746	2562
1	1845	2563
1	1945	2564
1	2025	2565
1	2092	2566
1	2120	2567
1	2117	2568
1	2081	2569
1	2021	2570
1	1935	2571
1	1839	2572
1	1728	2573
1	1620	2574
1	1524	2575
1	1449	2576
1	1397	2577
1	1383	2578
1	1412	2579
1	1546	2540
1	1619	2541
1	1724	2542
1	1837	2543
1	1943	2544
1	2029	2545
1	2103	2546
1	2148	2547
1	2160	2548
1	2133	2549
1	2078	2550
1	1998	2551
1	1892	2552
1	1781	2553
1	1674	2554
1	1595	2555
1	1543	2556
1	1514	2557
1	1512	2558
1	1535	2559
1	1472	2580
1	1561	2581
1	1666	2582
1	1775	2583
1	1883	2584
1	1978	2585
1	2054	2586
1	2111	2587
1	2130	2588
1	2110	2589
1	2047	2590
1	1947	2591
1	1830	2592
1	1704	2593
1	1579	2594
1	1463	2595
1	1372	2596
1	1312	2597
1	1290	2598
1	1307	2599
1	1359	2600
1	1445	2601
1	1550	2602
1	1661	2603
1	1778	2604
1	1888	2605
1	1974	2606
1	2025	2607
1	2048	2608
1	2035	2609
1	1986	2610
1	1913	2611
1	1815	2612
1	1699	2613
1	1581	2614
1	1472	2615
1	1376	2616
1	1310	2617
1	1274	2618
1	1270	2619
1	1307	2620
1	1379	2621
1	1476	2622
1	1592	2623
1	1712	2624
1	1827	2625
1	1926	2626
1	1989	2627
1	2013	2628
1	1998	2629
1	1943	2630
1	1852	2631
1	1731	2632
1	1613	2633
1	1494	2634
1	1393	2635
1	1319	2636
1	1278	2637
1	1267	2638
1	1290	2639
1	1340	2640
1	1422	2641
1	1510	2642
1	1606	2643
1	1703	2644
1	1801	2645
1	1873	2646
1	1921	2647
1	1927	2648
1	1912	2649
1	1865	2650
1	1786	2651
1	1684	2652
1	1579	2653
1	1461	2654
1	1346	2655
1	1265	2656
1	1209	2657
1	1192	2658
1	1214	2659
1	1267	2660
1	1353	2661
1	1455	2662
1	1557	2663
1	1670	2664
1	1778	2665
1	1869	2666
1	1916	2667
1	1924	2668
1	1900	2669
1	1849	2670
1	1773	2671
1	1681	2672
1	1577	2673
1	1467	2674
1	1370	2675
1	1297	2676
1	1262	2677
1	1261	2678
1	1291	2679
1	1350	2680
1	1443	2681
1	1547	2682
1	1660	2683
1	1770	2684
1	1868	2685
1	1944	2686
1	1979	2687
1	1982	2688
1	1948	2689
1	1880	2690
1	1781	2691
1	1665	2692
1	1542	2693
1	1424	2694
1	1314	2695
1	1237	2696
1	1194	2697
1	1189	2698
1	1215	2699
1	1274	2700
1	1365	2701
1	1474	2702
1	1584	2703
1	1704	2704
1	1812	2705
1	1888	2706
1	1932	2707
1	1935	2708
1	1910	2709
1	1854	2710
1	1764	2711
1	1660	2712
1	1551	2713
1	1445	2714
1	1341	2715
1	1268	2716
1	1225	2717
1	1218	2718
1	1247	2719
1	1315	2720
1	1411	2721
1	1517	2722
1	1628	2723
1	1737	2724
1	1842	2725
1	1922	2726
1	1973	2727
1	1993	2728
1	1976	2729
1	1922	2730
1	1842	2731
1	1714	2732
1	1598	2733
1	1485	2734
1	1346	2735
1	1291	2736
1	1242	2737
1	1232	2738
1	1258	2739
1	1317	2740
1	1399	2741
1	1492	2742
1	1592	2743
1	1691	2744
1	1787	2745
1	1869	2746
1	1922	2747
1	1939	2748
1	1925	2749
1	1887	2750
1	1817	2751
1	1713	2752
1	1607	2753
1	1494	2754
1	1392	2755
1	1310	2756
1	1262	2757
1	1256	2758
1	1289	2759
1	1340	2800
1	1422	2801
1	1511	2802
1	1614	2803
1	1720	2804
1	1818	2805
1	1896	2806
1	1940	2807
1	1950	2808
1	1927	2809
1	1873	2810
1	1791	2811
1	1688	2812
1	1579	2813
1	1461	2814
1	1356	2815
1	1287	2816
1	1235	2817
1	1220	2818
1	1244	2819
1	1341	2780
1	1433	2781
1	1533	2782
1	1641	2783
1	1741	2784
1	1832	2785
1	1898	2786
1	1932	2787
1	1939	2788
1	1916	2789
1	1866	2790
1	1795	2791
1	1701	2792
1	1602	2793
1	1490	2794
1	1392	2795
1	1319	2796
1	1271	2797
1	1265	2798
1	1285	2799
1	1346	2760
1	1441	2761
1	1543	2762
1	1654	2763
1	1762	2764
1	1859	2765
1	1931	2766
1	1973	2767
1	1979	2768
1	1953	2769
1	1899	2770
1	1817	2771
1	1701	2772
1	1582	2773
1	1464	2774
1	1361	2775
1	1297	2776
1	1260	2777
1	1251	2778
1	1278	2779
1	1309	2840
1	1373	2841
1	1463	2842
1	1556	2843
1	1661	2844
1	1764	2845
1	1858	2846
1	1908	2847
1	1930	2848
1	1922	2849
1	1884	2850
1	1819	2851
1	1730	2852
1	1634	2853
1	1533	2854
1	1433	2855
1	1348	2856
1	1297	2857
1	1281	2858
1	1296	2859
1	1305	2820
1	1400	2821
1	1504	2822
1	1621	2823
1	1737	2824
1	1844	2825
1	1922	2826
1	1971	2827
1	1974	2828
1	1940	2829
1	1869	2830
1	1775	2831
1	1661	2832
1	1549	2833
1	1441	2834
1	1340	2835
1	1272	2836
1	1238	2837
1	1224	2838
1	1251	2839
1	1259	2880
1	1344	2881
1	1441	2882
1	1544	2883
1	1651	2884
1	1751	2885
1	1845	2886
1	1914	2887
1	1949	2888
1	1952	2889
1	1922	2890
1	1856	2891
1	1751	2892
1	1634	2893
1	1520	2894
1	1411	2895
1	1326	2896
1	1269	2897
1	1243	2898
1	1250	2899
1	1285	2900
1	1346	2901
1	1436	2902
1	1536	2903
1	1647	2904
1	1764	2905
1	1869	2906
1	1940	2907
1	1969	2908
1	1966	2909
1	1922	2910
1	1850	2911
1	1747	2912
1	1634	2913
1	1517	2914
1	1414	2915
1	1330	2916
1	1278	2917
1	1266	2918
1	1288	2919
1	1346	2860
1	1427	2861
1	1508	2862
1	1607	2863
1	1707	2864
1	1798	2865
1	1892	2866
1	1949	2867
1	1976	2868
1	1971	2869
1	1930	2870
1	1855	2871
1	1751	2872
1	1639	2873
1	1523	2874
1	1412	2875
1	1318	2876
1	1241	2877
1	1211	2878
1	1215	2879
1	1350	2920
1	1443	2921
1	1539	2922
1	1643	2923
1	1744	2924
1	1842	2925
1	1912	2926
1	1949	2927
1	1952	2928
1	1922	2929
1	1861	2930
1	1766	2931
1	1660	2932
1	1555	2933
1	1441	2934
1	1351	2935
1	1289	2936
1	1260	2937
1	1265	2938
1	1293	2939
1	1356	2940
1	1445	2941
1	1544	2942
1	1646	2943
1	1746	2944
1	1851	2945
1	1921	2946
1	1968	2947
1	1980	2948
1	1961	2949
1	1908	2950
1	1828	2951
1	1713	2952
1	1602	2953
1	1482	2954
1	1376	2955
1	1298	2956
1	1246	2957
1	1229	2958
1	1251	2959
1	1312	2960
1	1403	2961
1	1508	2962
1	1615	2963
1	1721	2964
1	1823	2965
1	1904	2966
1	1948	2967
1	1968	2968
1	1962	2969
1	1922	2970
1	1858	2971
1	1764	2972
1	1660	2973
1	1546	2974
1	1435	2975
1	1337	2976
1	1274	2977
1	1250	2978
1	1265	2979
1	1311	2980
1	1395	2981
1	1492	2982
1	1605	2983
1	1719	2984
1	1831	2985
1	1922	2986
1	1976	2987
1	1992	2988
1	1973	2989
1	1920	2990
1	1843	2991
1	1742	2992
1	1644	2993
1	1531	2994
1	1436	2995
1	1351	2996
1	1296	2997
1	1280	2998
1	1294	2999
1	1346	3000
1	1440	3001
1	1548	3002
1	1662	3003
1	1782	3004
1	1890	3005
1	1960	3006
1	2000	3007
1	1999	3008
1	1962	3009
1	1895	3010
1	1801	3011
1	1692	3012
1	1584	3013
1	1476	3014
1	1376	3015
1	1314	3016
1	1272	3017
1	1267	3018
1	1296	3019
1	1359	3020
1	1445	3021
1	1537	3022
1	1634	3023
1	1727	3024
1	1817	3025
1	1890	3026
1	1931	3027
1	1949	3028
1	1945	3029
1	1908	3030
1	1847	3031
1	1750	3032
1	1650	3033
1	1550	3034
1	1453	3035
1	1372	3036
1	1319	3037
1	1302	3038
1	1319	3039
1	1376	3040
1	1463	3041
1	1566	3042
1	1673	3043
1	1784	3044
1	1886	3045
1	1960	3046
1	2000	3047
1	2006	3048
1	1976	3049
1	1911	3050
1	1827	3051
1	1713	3052
1	1606	3053
1	1500	3054
1	1413	3055
1	1347	3056
1	1314	3057
1	1314	3058
1	1338	3059
1	1398	3060
1	1487	3061
1	1590	3062
1	1699	3063
1	1816	3064
1	1912	3065
1	1988	3066
1	2034	3067
1	2043	3068
1	2016	3069
1	1953	3070
1	1860	3071
1	1742	3072
1	1634	3073
1	1527	3074
1	1431	3075
1	1361	3076
1	1317	3077
1	1305	3078
1	1327	3079
1	1377	3080
1	1461	3081
1	1551	3082
1	1645	3083
1	1748	3084
1	1850	3085
1	1927	3086
1	1971	3087
1	1975	3088
1	1950	3089
1	1891	3090
1	1811	3091
1	1699	3092
1	1593	3093
1	1486	3094
1	1396	3095
1	1325	3096
1	1293	3097
1	1294	3098
1	1332	3099
1	1404	3100
1	1503	3101
1	1612	3102
1	1730	3103
1	1847	3104
1	1958	3105
1	2052	3106
1	2111	3107
1	2131	3108
1	2111	3109
1	2050	3110
1	1956	3111
1	1845	3112
1	1724	3113
1	1605	3114
1	1496	3115
1	1414	3116
1	1346	3117
1	1327	3118
1	1337	3119
1	1395	3120
1	1478	3121
1	1571	3122
1	1671	3123
1	1778	3124
1	1881	3125
1	1963	3126
1	2018	3127
1	2045	3128
1	2039	3129
1	2003	3130
1	1941	3131
1	1858	3132
1	1764	3133
1	1674	3134
1	1582	3135
1	1508	3136
1	1464	3137
1	1440	3138
1	1456	3139
1	1502	3140
1	1571	3141
1	1652	3142
1	1742	3143
1	1843	3144
1	1926	3145
1	1993	3146
1	2026	3147
1	2030	3148
1	2004	3149
1	1945	3150
1	1857	3151
1	1746	3152
1	1636	3153
1	1529	3154
1	1430	3155
1	1351	3156
1	1305	3157
1	1292	3158
1	1314	3159
1	1369	3160
1	1450	3161
1	1540	3162
1	1641	3163
1	1751	3164
1	1856	3165
1	1943	3166
1	1994	3167
1	2006	3168
1	1989	3169
1	1939	3170
1	1860	3171
1	1764	3172
1	1665	3173
1	1562	3174
1	1467	3175
1	1398	3176
1	1352	3177
1	1346	3178
1	1368	3179
1	1426	3180
1	1515	3181
1	1619	3182
1	1724	3183
1	1836	3184
1	1928	3185
1	2000	3186
1	2044	3187
1	2057	3188
1	2035	3189
1	1977	3190
1	1891	3191
1	1772	3192
1	1656	3193
1	1546	3194
1	1443	3195
1	1372	3196
1	1327	3197
1	1318	3198
1	1341	3199
1	1400	3200
1	1477	3201
1	1573	3202
1	1673	3203
1	1775	3204
1	1869	3205
1	1946	3206
1	1992	3207
1	2011	3208
1	2000	3209
1	1957	3210
1	1884	3211
1	1779	3212
1	1668	3213
1	1556	3214
1	1461	3215
1	1394	3216
1	1346	3217
1	1338	3218
1	1361	3219
1	1503	3240
1	1589	3241
1	1688	3242
1	1796	3243
1	1914	3244
1	2037	3245
1	2137	3246
1	2212	3247
1	2263	3248
1	2280	3249
1	2261	3250
1	2196	3251
1	2106	3252
1	2014	3253
1	1913	3254
1	1814	3255
1	1738	3256
1	1688	3257
1	1676	3258
1	1701	3259
1	1414	3220
1	1490	3221
1	1579	3222
1	1683	3223
1	1791	3224
1	1895	3225
1	1976	3226
1	2027	3227
1	2045	3228
1	2028	3229
1	1983	3230
1	1908	3231
1	1811	3232
1	1707	3233
1	1593	3234
1	1505	3235
1	1448	3236
1	1418	3237
1	1415	3238
1	1442	3239
1	1704	3280
1	1722	3281
1	1752	3282
1	1798	3283
1	1864	3284
1	1922	3285
1	1980	3286
1	2012	3287
1	2013	3288
1	1985	3289
1	1925	3290
1	1843	3291
1	1737	3292
1	1628	3293
1	1519	3294
1	1424	3295
1	1345	3296
1	1291	3297
1	1280	3298
1	1310	3299
1	1768	3260
1	1877	3261
1	2004	3262
1	2138	3263
1	2281	3264
1	2410	3265
1	2516	3266
1	2586	3267
1	2630	3268
1	2638	3269
1	2605	3270
1	2554	3271
1	2471	3272
1	2352	3273
1	2215	3274
1	2079	3275
1	1953	3276
1	1848	3277
1	1764	3278
1	1716	3279
1	1372	3300
1	1477	3301
1	1593	3302
1	1714	3303
1	1843	3304
1	1956	3305
1	2058	3306
1	2127	3307
1	2155	3308
1	2142	3309
1	2091	3310
1	2012	3311
1	1899	3312
1	1777	3313
1	1646	3314
1	1512	3315
1	1416	3316
1	1346	3317
1	1329	3318
1	1347	3319
1	1404	3320
1	1487	3321
1	1596	3322
1	1710	3323
1	1833	3324
1	1944	3325
1	2034	3326
1	2087	3327
1	2110	3328
1	2097	3329
1	2048	3330
1	1976	3331
1	1870	3332
1	1756	3333
1	1646	3334
1	1542	3335
1	1466	3336
1	1411	3337
1	1380	3338
1	1392	3339
1	1433	3340
1	1507	3341
1	1594	3342
1	1697	3343
1	1812	3344
1	1910	3345
1	1999	3346
1	2052	3347
1	2066	3348
1	2050	3349
1	2000	3350
1	1931	3351
1	1841	3352
1	1737	3353
1	1637	3354
1	1547	3355
1	1476	3356
1	1430	3357
1	1424	3358
1	1448	3359
1	1431	3380
1	1522	3381
1	1634	3382
1	1751	3383
1	1873	3384
1	1983	3385
1	2070	3386
1	2120	3387
1	2140	3388
1	2122	3389
1	2070	3390
1	2000	3391
1	1904	3392
1	1802	3393
1	1701	3394
1	1614	3395
1	1551	3396
1	1512	3397
1	1503	3398
1	1526	3399
1	1573	3400
1	1646	3401
1	1726	3402
1	1817	3403
1	1906	3404
1	1978	3405
1	2048	3406
1	2084	3407
1	2097	3408
1	2084	3409
1	2050	3410
1	1986	3411
1	1904	3412
1	1802	3413
1	1698	3414
1	1605	3415
1	1533	3416
1	1480	3417
1	1465	3418
1	1481	3419
1	1499	3360
1	1583	3361
1	1676	3362
1	1781	3363
1	1895	3364
1	1994	3365
1	2074	3366
1	2130	3367
1	2145	3368
1	2122	3369
1	2063	3370
1	1973	3371
1	1856	3372
1	1736	3373
1	1607	3374
1	1492	3375
1	1413	3376
1	1350	3377
1	1341	3378
1	1369	3379
1	1529	3420
1	1613	3421
1	1713	3422
1	1823	3423
1	1929	3424
1	2022	3425
1	2099	3426
1	2148	3427
1	2162	3428
1	2153	3429
1	2104	3430
1	2026	3431
1	1913	3432
1	1798	3433
1	1688	3434
1	1595	3435
1	1528	3436
1	1491	3437
1	1481	3438
1	1513	3439
1	1576	3440
1	1653	3441
1	1751	3442
1	1859	3443
1	1971	3444
1	2076	3445
1	2156	3446
1	2201	3447
1	2206	3448
1	2165	3449
1	2096	3450
1	2007	3451
1	1894	3452
1	1776	3453
1	1660	3454
1	1569	3455
1	1494	3456
1	1450	3457
1	1445	3458
1	1471	3459
1	1529	3460
1	1620	3461
1	1724	3462
1	1846	3463
1	1967	3464
1	2075	3465
1	2170	3466
1	2222	3467
1	2250	3468
1	2236	3469
1	2182	3470
1	2096	3471
1	1986	3472
1	1874	3473
1	1763	3474
1	1665	3475
1	1594	3476
1	1542	3477
1	1529	3478
1	1552	3479
1	1600	3480
1	1686	3481
1	1777	3482
1	1880	3483
1	1986	3484
1	2084	3485
1	2168	3486
1	2222	3487
1	2244	3488
1	2213	3489
1	2156	3490
1	2066	3491
1	1958	3492
1	1854	3493
1	1741	3494
1	1638	3495
1	1561	3496
1	1508	3497
1	1489	3498
1	1508	3499
1	1564	3500
1	1655	3501
1	1764	3502
1	1888	3503
1	2012	3504
1	2118	3505
1	2206	3506
1	2261	3507
1	2280	3508
1	2264	3509
1	2208	3510
1	2131	3511
1	2019	3512
1	1893	3513
1	1752	3514
1	1624	3515
1	1519	3516
1	1440	3517
1	1406	3518
1	1415	3519
1	1560	3540
1	1632	3541
1	1714	3542
1	1803	3543
1	1903	3544
1	1994	3545
1	2066	3546
1	2102	3547
1	2103	3548
1	2071	3549
1	2015	3550
1	1935	3551
1	1833	3552
1	1729	3553
1	1628	3554
1	1533	3555
1	1467	3556
1	1424	3557
1	1409	3558
1	1424	3559
1	1463	3520
1	1544	3521
1	1634	3522
1	1737	3523
1	1851	3524
1	1951	3525
1	2045	3526
1	2105	3527
1	2131	3528
1	2126	3529
1	2084	3530
1	2018	3531
1	1925	3532
1	1834	3533
1	1724	3534
1	1636	3535
1	1569	3536
1	1527	3537
1	1511	3538
1	1526	3539
1	1472	3560
1	1540	3561
1	1631	3562
1	1728	3563
1	1837	3564
1	1935	3565
1	2018	3566
1	2066	3567
1	2086	3568
1	2074	3569
1	2016	3570
1	1945	3571
1	1840	3572
1	1718	3573
1	1595	3574
1	1481	3575
1	1391	3576
1	1330	3577
1	1311	3578
1	1332	3579
1	1377	3600
1	1476	3601
1	1586	3602
1	1705	3603
1	1832	3604
1	1935	3605
1	2022	3606
1	2076	3607
1	2093	3608
1	2071	3609
1	2019	3610
1	1938	3611
1	1832	3612
1	1719	3613
1	1607	3614
1	1485	3615
1	1398	3616
1	1327	3617
1	1298	3618
1	1310	3619
1	1384	3580
1	1469	3581
1	1556	3582
1	1657	3583
1	1755	3584
1	1847	3585
1	1936	3586
1	1995	3587
1	2017	3588
1	2000	3589
1	1948	3590
1	1866	3591
1	1762	3592
1	1657	3593
1	1548	3594
1	1446	3595
1	1361	3596
1	1307	3597
1	1298	3598
1	1321	3599
1	1358	3620
1	1445	3621
1	1548	3622
1	1661	3623
1	1781	3624
1	1894	3625
1	1985	3626
1	2045	3627
1	2079	3628
1	2070	3629
1	2016	3630
1	1947	3631
1	1838	3632
1	1724	3633
1	1606	3634
1	1490	3635
1	1407	3636
1	1346	3637
1	1327	3638
1	1341	3639
1	1391	3640
1	1458	3641
1	1546	3642
1	1647	3643
1	1764	3644
1	1878	3645
1	1976	3646
1	2039	3647
1	2060	3648
1	2045	3649
1	1992	3650
1	1917	3651
1	1811	3652
1	1687	3653
1	1566	3654
1	1459	3655
1	1377	3656
1	1322	3657
1	1309	3658
1	1332	3659
1	1395	3660
1	1492	3661
1	1592	3662
1	1701	3663
1	1817	3664
1	1912	3665
1	1998	3666
1	2053	3667
1	2077	3668
1	2061	3669
1	2008	3670
1	1926	3671
1	1824	3672
1	1717	3673
1	1611	3674
1	1513	3675
1	1445	3676
1	1398	3677
1	1376	3678
1	1397	3679
1	1448	3680
1	1525	3681
1	1611	3682
1	1706	3683
1	1802	3684
1	1894	3685
1	1970	3686
1	2014	3687
1	2029	3688
1	2009	3689
1	1953	3690
1	1895	3691
1	1814	3692
1	1716	3693
1	1622	3694
1	1541	3695
1	1482	3696
1	1447	3697
1	1436	3698
1	1448	3699
1	1485	3700
1	1549	3701
1	1625	3702
1	1714	3703
1	1817	3704
1	1908	3705
1	1992	3706
1	2042	3707
1	2055	3708
1	2040	3709
1	1994	3710
1	1922	3711
1	1834	3712
1	1725	3713
1	1616	3714
1	1520	3715
1	1449	3716
1	1398	3717
1	1372	3718
1	1382	3719
1	1421	3720
1	1492	3721
1	1577	3722
1	1667	3723
1	1773	3724
1	1881	3725
1	1970	3726
1	2028	3727
1	2054	3728
1	2044	3729
1	2000	3730
1	1920	3731
1	1811	3732
1	1692	3733
1	1577	3734
1	1467	3735
1	1377	3736
1	1327	3737
1	1304	3738
1	1325	3739
1	1383	3740
1	1473	3741
1	1584	3742
1	1686	3743
1	1801	3744
1	1909	3745
1	2002	3746
1	2070	3747
1	2109	3748
1	2115	3749
1	2071	3750
1	1996	3751
1	1878	3752
1	1754	3753
1	1618	3754
1	1505	3755
1	1405	3756
1	1335	3757
1	1311	3758
1	1322	3759
1	1374	3760
1	1463	3761
1	1562	3762
1	1674	3763
1	1787	3764
1	1890	3765
1	1987	3766
1	2048	3767
1	2075	3768
1	2068	3769
1	2025	3770
1	1950	3771
1	1849	3772
1	1728	3773
1	1603	3774
1	1490	3775
1	1400	3776
1	1332	3777
1	1307	3778
1	1323	3779
1	1377	3780
1	1478	3781
1	1588	3782
1	1703	3783
1	1826	3784
1	1936	3785
1	2026	3786
1	2084	3787
1	2109	3788
1	2093	3789
1	2030	3790
1	1931	3791
1	1809	3792
1	1691	3793
1	1578	3794
1	1469	3795
1	1398	3796
1	1347	3797
1	1335	3798
1	1346	3799
1	1398	3800
1	1475	3801
1	1567	3802
1	1668	3803
1	1775	3804
1	1877	3805
1	1961	3806
1	2013	3807
1	2037	3808
1	2029	3809
1	1987	3810
1	1921	3811
1	1825	3812
1	1717	3813
1	1608	3814
1	1513	3815
1	1440	3816
1	1397	3817
1	1380	3818
1	1397	3819
1	1437	3820
1	1503	3821
1	1585	3822
1	1686	3823
1	1795	3824
1	1901	3825
1	1998	3826
1	2052	3827
1	2077	3828
1	2065	3829
1	2017	3830
1	1935	3831
1	1828	3832
1	1714	3833
1	1596	3834
1	1490	3835
1	1411	3836
1	1356	3837
1	1341	3838
1	1364	3839
1	1424	3840
1	1506	3841
1	1608	3842
1	1714	3843
1	1827	3844
1	1926	3845
1	2012	3846
1	2064	3847
1	2083	3848
1	2070	3849
1	2021	3850
1	1942	3851
1	1836	3852
1	1718	3853
1	1603	3854
1	1494	3855
1	1415	3856
1	1361	3857
1	1346	3858
1	1366	3859
1	1424	3860
1	1510	3861
1	1613	3862
1	1728	3863
1	1847	3864
1	1953	3865
1	2039	3866
1	2081	3867
1	2094	3868
1	2074	3869
1	2016	3870
1	1932	3871
1	1820	3872
1	1696	3873
1	1578	3874
1	1476	3875
1	1409	3876
1	1368	3877
1	1368	3878
1	1398	3879
1	1452	3900
1	1543	3901
1	1646	3902
1	1751	3903
1	1862	3904
1	1957	3905
1	2034	3906
1	2079	3907
1	2096	3908
1	2069	3909
1	2009	3910
1	1922	3911
1	1819	3912
1	1710	3913
1	1597	3914
1	1502	3915
1	1424	3916
1	1364	3917
1	1350	3918
1	1372	3919
1	1433	3900
1	1520	3901
1	1618	3902
1	1726	3903
1	1845	3904
1	1949	3905
1	2031	3906
1	2090	3907
1	2114	3908
1	2101	3909
1	2051	3910
1	1968	3911
1	1858	3912
1	1738	3913
1	1618	3914
1	1511	3915
1	1435	3916
1	1377	3917
1	1363	3918
1	1377	3919
1	1431	3920
1	1508	3921
1	1606	3922
1	1707	3923
1	1822	3924
1	1922	3925
1	2011	3926
1	2061	3927
1	2081	3928
1	2071	3929
1	2027	3930
1	1967	3931
1	1872	3932
1	1765	3933
1	1655	3934
1	1531	3935
1	1437	3936
1	1350	3937
1	1329	3938
1	1327	3939
1	1463	3960
1	1544	3961
1	1643	3962
1	1749	3963
1	1864	3964
1	1962	3965
1	2045	3966
1	2102	3967
1	2122	3968
1	2104	3969
1	2048	3970
1	1957	3971
1	1840	3972
1	1712	3973
1	1589	3974
1	1477	3975
1	1400	3976
1	1347	3977
1	1338	3978
1	1364	3979
1	1359	3940
1	1427	3941
1	1510	3942
1	1612	3943
1	1737	3944
1	1863	3945
1	1962	3946
1	2026	3947
1	2052	3948
1	2048	3949
1	2012	3950
1	1957	3951
1	1868	3952
1	1761	3953
1	1656	3954
1	1558	3955
1	1485	3956
1	1431	3957
1	1409	3958
1	1418	3959
1	1431	3980
1	1518	3981
1	1625	3982
1	1738	3983
1	1856	3984
1	1951	3985
1	2026	3986
1	2066	3987
1	2074	3988
1	2051	3989
1	1994	3990
1	1914	3991
1	1814	3992
1	1706	3993
1	1602	3994
1	1508	3995
1	1440	3996
1	1400	3997
1	1392	3998
1	1410	3999
1	1458	4000
1	1533	4001
1	1622	4002
1	1723	4003
1	1832	4004
1	1926	4005
1	2012	4006
1	2066	4006
1	2084	4008
1	2066	4009
1	2012	4010
1	1922	4011
1	1819	4012
1	1708	4013
1	1604	4014
1	1514	4014
1	1448	4016
1	1398	4017
1	1379	4018
1	1404	4019
1	1459	4020
1	1544	4021
1	1647	4022
1	1751	4022
1	1858	4024
1	1949	4025
1	2018	4026
1	2058	4027
1	2073	4028
1	2053	4029
1	2000	4030
1	1914	4030
1	1803	4032
1	1691	4033
1	1587	4034
1	1492	4035
1	1424	4036
1	1377	4037
1	1364	4038
1	1393	4038
1	1445	4040
1	1523	4041
1	1615	4042
1	1715	4043
1	1829	4044
1	1931	4045
1	2016	4046
1	2061	4046
1	2073	4048
1	2052	4049
1	1999	4050
1	1913	4051
1	1803	4052
1	1691	4053
1	1585	4054
1	1487	4054
1	1408	4056
1	1351	4057
1	1332	4058
1	1344	4059
1	1395	4060
1	1471	4061
1	1559	4062
1	1668	4062
1	1776	4064
1	1873	4065
1	1953	4066
1	2008	4067
1	2043	4068
1	2050	4069
1	2026	4070
1	1969	4070
1	1884	4072
1	1778	4073
1	1668	4074
1	1566	4075
1	1484	4076
1	1424	4077
1	1404	4078
1	1418	4078
1	1464	4080
1	1543	4081
1	1636	4082
1	1736	4083
1	1843	4084
1	1937	4085
1	2018	4086
1	2067	4086
1	2087	4088
1	2070	4089
1	2021	4090
1	1944	4091
1	1843	4092
1	1740	4093
1	1637	4094
1	1552	4094
1	1498	4096
1	1468	4097
1	1472	4098
1	1503	4099
1	1567	4100
1	1648	4101
1	1746	4102
1	1856	4103
1	1956	4104
1	2039	4105
1	2102	4106
1	2124	4107
1	2124	4108
1	2094	4109
1	2032	4110
1	1948	4111
1	1842	4112
1	1734	4113
1	1629	4114
1	1534	4115
1	1463	4116
1	1424	4117
1	1422	4118
1	1450	4119
1	1507	4120
1	1593	4121
1	1686	4122
1	1791	4123
1	1895	4124
1	1984	4125
1	2057	4126
1	2094	4127
1	2096	4128
1	2066	4129
1	2011	4130
1	1927	4131
1	1827	4132
1	1726	4133
1	1620	4134
1	1529	4135
1	1459	4136
1	1424	4137
1	1412	4138
1	1423	4139
1	1464	4140
1	1535	4141
1	1622	4142
1	1715	4143
1	1818	4144
1	1920	4145
1	1998	4146
1	2055	4147
1	2079	4148
1	2061	4149
1	2013	4150
1	1931	4151
1	1827	4152
1	1715	4153
1	1607	4154
1	1511	4155
1	1436	4156
1	1376	4157
1	1348	4158
1	1355	4159
1	1398	4160
1	1476	4161
1	1579	4162
1	1688	4163
1	1812	4164
1	1917	4165
1	2004	4166
1	2056	4167
1	2080	4168
1	2069	4169
1	2019	4170
1	1939	4171
1	1834	4172
1	1713	4173
1	1602	4174
1	1502	4175
1	1423	4176
1	1369	4177
1	1351	4178
1	1373	4179
1	1427	4180
1	1503	4181
1	1597	4182
1	1710	4183
1	1827	4184
1	1927	4185
1	2010	4186
1	2052	4187
1	2052	4188
1	2026	4189
1	1962	4190
1	1871	4191
1	1764	4192
1	1655	4193
1	1543	4194
1	1445	4195
1	1359	4196
1	1306	4197
1	1293	4198
1	1320	4199
1	1382	4200
1	1476	4201
1	1582	4202
1	1695	4203
1	1809	4204
1	1902	4205
1	1979	4206
1	2026	4207
1	2044	4208
1	2034	4209
1	1994	4210
1	1922	4211
1	1818	4212
1	1710	4213
1	1599	4214
1	1502	4215
1	1424	4216
1	1372	4217
1	1353	4218
1	1371	4219
1	1425	4220
1	1503	4221
1	1594	4222
1	1696	4223
1	1802	4224
1	1899	4225
1	1985	4226
1	2042	4227
1	2079	4228
1	2091	4229
1	2073	4230
1	2030	4231
1	1953	4232
1	1872	4233
1	1782	4234
1	1708	4235
1	1660	4236
1	1633	4237
1	1643	4238
1	1683	4239
1	2107	4260
1	2189	4261
1	2275	4262
1	2342	4263
1	2397	4264
1	2430	4265
1	2431	4266
1	2399	4267
1	2332	4268
1	2236	4269
1	2107	4270
1	1965	4271
1	1816	4272
1	1670	4273
1	1539	4274
1	1432	4275
1	1357	4276
1	1318	4277
1	1315	4278
1	1346	4279
1	1416	4280
1	1505	4281
1	1616	4282
1	1734	4283
1	1854	4284
1	1960	4285
1	2045	4286
1	2097	4287
1	2111	4288
1	2089	4289
1	2026	4290
1	1937	4291
1	1819	4292
1	1692	4293
1	1567	4294
1	1456	4295
1	1369	4296
1	1316	4297
1	1300	4298
1	1322	4299
1	1748	4240
1	1842	4241
1	1942	4242
1	2050	4243
1	2163	4244
1	2278	4245
1	2377	4246
1	2454	4247
1	2497	4248
1	2501	4249
1	2480	4250
1	2419	4251
1	2341	4252
1	2256	4253
1	2163	4254
1	2089	4255
1	2042	4256
1	2014	4257
1	2021	4258
1	2052	4259
1	1377	4300
1	1467	4301
1	1573	4302
1	1695	4303
1	1827	4304
1	1936	4305
1	2025	4306
1	2074	4307
1	2083	4308
1	2061	4309
1	2004	4310
1	1920	4311
1	1816	4312
1	1698	4313
1	1581	4314
1	1476	4315
1	1399	4316
1	1344	4317
1	1328	4318
1	1346	4319
1	1404	4320
1	1499	4321
1	1600	4322
1	1710	4323
1	1826	4324
1	1929	4325
1	2010	4326
1	2056	4327
1	2064	4328
1	2037	4329
1	1975	4330
1	1885	4331
1	1764	4332
1	1643	4333
1	1517	4334
1	1416	4335
1	1345	4336
1	1310	4337
1	1301	4338
1	1335	4339
1	1407	4340
1	1503	4341
1	1616	4342
1	1742	4343
1	1868	4344
1	1968	4345
1	2043	4346
1	2079	4347
1	2088	4348
1	2062	4349
1	2001	4350
1	1920	4351
1	1810	4352
1	1693	4353
1	1581	4354
1	1476	4355
1	1397	4356
1	1346	4357
1	1339	4358
1	1366	4359
1	1428	4360
1	1513	4361
1	1609	4362
1	1716	4363
1	1832	4364
1	1927	4365
1	2012	4366
1	2054	4367
1	2066	4368
1	2048	4369
1	1993	4370
1	1910	4371
1	1818	4372
1	1713	4373
1	1610	4374
1	1517	4375
1	1446	4376
1	1395	4377
1	1379	4378
1	1407	4379
1	1432	4400
1	1503	4401
1	1593	4402
1	1690	4403
1	1800	4404
1	1908	4405
1	1999	4406
1	2060	4407
1	2091	4408
1	2089	4409
1	2057	4410
1	2000	4411
1	1917	4412
1	1819	4413
1	1716	4414
1	1625	4415
1	1551	4416
1	1499	4417
1	1464	4418
1	1455	4419
1	1463	4380
1	1551	4381
1	1651	4382
1	1763	4383
1	1880	4384
1	1980	4385
1	2053	4386
1	2097	4387
1	2105	4388
1	2076	4389
1	2019	4390
1	1934	4391
1	1841	4392
1	1732	4393
1	1622	4394
1	1527	4395
1	1449	4396
1	1392	4397
1	1368	4398
1	1382	4399
1	1477	4420
1	1532	4421
1	1607	4422
1	1694	4423
1	1788	4424
1	1873	4425
1	1949	4426
1	1998	4427
1	2013	4428
1	2000	4429
1	1959	4430
1	1896	4431
1	1822	4432
1	1751	4433
1	1670	4434
1	1600	4435
1	1541	4436
1	1508	4437
1	1503	4438
1	1530	4439
1	1586	4440
1	1669	4441
1	1757	4442
1	1856	4443
1	1948	4444
1	2034	4445
1	2094	4446
1	2131	4447
1	2142	4448
1	2118	4449
1	2063	4450
1	1976	4451
1	1863	4452
1	1750	4453
1	1639	4454
1	1542	4455
1	1473	4456
1	1433	4457
1	1436	4458
1	1466	4459
1	1529	4460
1	1616	4461
1	1726	4462
1	1845	4463
1	1960	4464
1	2056	4465
1	2130	4466
1	2167	4467
1	2174	4468
1	2155	4469
1	2097	4470
1	2021	4471
1	1920	4472
1	1809	4473
1	1689	4474
1	1581	4475
1	1499	4476
1	1443	4477
1	1424	4478
1	1437	4479
1	1493	4480
1	1580	4481
1	1685	4482
1	1800	4483
1	1920	4484
1	2019	4485
1	2106	4486
1	2160	4487
1	2178	4488
1	2158	4489
1	2111	4490
1	2026	4491
1	1932	4492
1	1826	4493
1	1706	4494
1	1597	4495
1	1520	4496
1	1472	4497
1	1453	4498
1	1463	4499
1	1503	4500
1	1581	4501
1	1676	4502
1	1785	4503
1	1899	4504
1	1999	4505
1	2076	4506
1	2120	4507
1	2136	4508
1	2118	4509
1	2069	4510
1	1988	4511
1	1893	4512
1	1776	4513
1	1660	4514
1	1555	4515
1	1476	4516
1	1424	4517
1	1400	4518
1	1406	4519
1	1437	4520
1	1503	4521
1	1589	4522
1	1681	4523
1	1780	4524
1	1878	4525
1	1949	4526
1	2000	4527
1	2021	4528
1	2005	4529
1	1958	4530
1	1886	4531
1	1777	4532
1	1661	4533
1	1538	4534
1	1436	4535
1	1348	4536
1	1297	4537
1	1283	4538
1	1302	4539
1	1359	4540
1	1454	4541
1	1568	4542
1	1685	4543
1	1800	4544
1	1904	4545
1	1976	4546
1	2026	4547
1	2037	4548
1	2013	4549
1	1958	4550
1	1868	4551
1	1751	4552
1	1633	4553
1	1512	4554
1	1407	4555
1	1311	4556
1	1251	4557
1	1224	4558
1	1235	4559
1	1279	4560
1	1364	4561
1	1463	4562
1	1570	4563
1	1678	4564
1	1770	4565
1	1854	4566
1	1902	4567
1	1916	4568
1	1895	4569
1	1844	4570
1	1749	4571
1	1644	4572
1	1537	4573
1	1429	4574
1	1333	4575
1	1274	4576
1	1243	4577
1	1254	4578
1	1296	4579
1	1370	4580
1	1466	4581
1	1568	4582
1	1679	4583
1	1791	4584
1	1897	4585
1	1970	4586
1	2003	4587
1	2000	4588
1	1957	4589
1	1888	4590
1	1796	4591
1	1692	4592
1	1586	4593
1	1477	4594
1	1379	4595
1	1308	4596
1	1265	4597
1	1253	4598
1	1273	4599
1	1323	4600
1	1399	4601
1	1492	4602
1	1598	4603
1	1701	4604
1	1793	4605
1	1868	4606
1	1898	4607
1	1900	4608
1	1872	4609
1	1818	4610
1	1738	4611
1	1643	4612
1	1541	4613
1	1436	4614
1	1338	4615
1	1268	4616
1	1232	4617
1	1233	4618
1	1261	4619
1	1301	4640
1	1392	4641
1	1497	4642
1	1610	4643
1	1729	4644
1	1843	4645
1	1922	4646
1	1974	4647
1	1985	4648
1	1958	4649
1	1898	4650
1	1803	4651
1	1701	4652
1	1589	4653
1	1473	4654
1	1363	4655
1	1288	4656
1	1241	4657
1	1229	4658
1	1253	4659
1	1319	4620
1	1409	4621
1	1503	4622
1	1606	4623
1	1710	4624
1	1802	4625
1	1880	4626
1	1927	4627
1	1939	4628
1	1922	4629
1	1869	4630
1	1779	4631
1	1677	4632
1	1571	4633
1	1459	4634
1	1354	4635
1	1278	4636
1	1230	4637
1	1217	4638
1	1241	4639
1	1310	4660
1	1392	4661
1	1499	4662
1	1616	4663
1	1740	4664
1	1857	4665
1	1953	4666
1	2011	4667
1	2026	4668
1	2007	4669
1	1948	4670
1	1856	4671
1	1739	4672
1	1616	4673
1	1490	4674
1	1376	4675
1	1292	4676
1	1239	4677
1	1220	4678
1	1242	4679
1	1299	4680
1	1395	4681
1	1500	4682
1	1607	4683
1	1715	4684
1	1822	4685
1	1905	4686
1	1958	4687
1	1976	4688
1	1961	4689
1	1906	4690
1	1813	4691
1	1706	4692
1	1598	4693
1	1482	4694
1	1374	4695
1	1296	4696
1	1245	4697
1	1240	4698
1	1266	4699
1	1327	4700
1	1416	4701
1	1517	4702
1	1628	4703
1	1738	4704
1	1842	4705
1	1913	4706
1	1966	4707
1	1980	4708
1	1965	4709
1	1913	4710
1	1838	4711
1	1731	4712
1	1620	4713
1	1503	4714
1	1398	4715
1	1312	4716
1	1266	4717
1	1252	4718
1	1269	4719
1	1319	4720
1	1393	4721
1	1482	4722
1	1581	4723
1	1682	4724
1	1773	4725
1	1859	4726
1	1913	4727
1	1933	4728
1	1920	4729
1	1875	4730
1	1810	4731
1	1720	4732
1	1633	4733
1	1526	4734
1	1427	4735
1	1347	4736
1	1303	4737
1	1287	4738
1	1301	4739
1	1346	4740
1	1421	4741
1	1502	4742
1	1586	4743
1	1666	4744
1	1743	4745
1	1800	4746
1	1832	4747
1	1837	4748
1	1817	4749
1	1764	4750
1	1686	4751
1	1603	4752
1	1518	4753
1	1436	4754
1	1359	4755
1	1311	4756
1	1289	4757
1	1299	4758
1	1341	4759
1	1413	4760
1	1502	4761
1	1598	4762
1	1691	4763
1	1786	4764
1	1869	4765
1	1935	4766
1	1976	4767
1	1994	4768
1	1978	4769
1	1930	4770
1	1852	4771
1	1739	4772
1	1621	4773
1	1495	4774
1	1377	4775
1	1291	4776
1	1233	4777
1	1215	4778
1	1233	4779
1	1283	4780
1	1350	4781
1	1448	4782
1	1554	4783
1	1664	4784
1	1768	4785
1	1862	4786
1	1921	4787
1	1942	4788
1	1924	4789
1	1875	4790
1	1787	4791
1	1691	4792
1	1592	4793
1	1481	4794
1	1377	4795
1	1305	4796
1	1265	4797
1	1253	4798
1	1272	4799
1	1325	4800
1	1415	4801
1	1515	4802
1	1621	4803
1	1728	4804
1	1832	4805
1	1917	4806
1	1973	4807
1	1992	4808
1	1974	4809
1	1917	4810
1	1825	4811
1	1710	4812
1	1590	4813
1	1465	4814
1	1350	4815
1	1265	4816
1	1212	4817
1	1193	4818
1	1214	4819
1	1267	4820
1	1347	4821
1	1447	4822
1	1548	4823
1	1655	4824
1	1753	4825
1	1832	4826
1	1877	4827
1	1886	4828
1	1856	4829
1	1795	4830
1	1720	4831
1	1631	4832
1	1547	4833
1	1454	4834
1	1379	4835
1	1324	4836
1	1302	4837
1	1310	4838
1	1341	4839
1	1239	4860
1	1346	4861
1	1468	4862
1	1594	4863
1	1715	4864
1	1829	4865
1	1917	4866
1	1976	4867
1	1997	4868
1	1977	4869
1	1926	4870
1	1843	4871
1	1742	4872
1	1636	4873
1	1523	4874
1	1418	4875
1	1332	4876
1	1277	4877
1	1258	4878
1	1271	4879
1	1405	4840
1	1487	4841
1	1582	4842
1	1685	4843
1	1790	4844
1	1881	4845
1	1946	4846
1	1980	4847
1	1975	4848
1	1939	4849
1	1877	4850
1	1780	4851
1	1670	4852
1	1555	4853
1	1430	4854
1	1319	4855
1	1223	4856
1	1170	4857
1	1151	4858
1	1175	4859
1	1321	4880
1	1405	4881
1	1503	4882
1	1609	4883
1	1723	4884
1	1818	4885
1	1882	4886
1	1922	4887
1	1926	4888
1	1900	4889
1	1843	4890
1	1757	4891
1	1656	4892
1	1544	4893
1	1428	4894
1	1319	4895
1	1235	4896
1	1187	4897
1	1181	4898
1	1216	4899
1	1290	4900
1	1382	4901
1	1492	4902
1	1607	4903
1	1724	4904
1	1831	4905
1	1911	4906
1	1958	4907
1	1970	4908
1	1946	4909
1	1890	4910
1	1810	4911
1	1706	4912
1	1597	4913
1	1487	4914
1	1384	4915
1	1308	4916
1	1267	4917
1	1265	4918
1	1294	4919
1	1364	4920
1	1461	4921
1	1566	4922
1	1677	4923
1	1782	4924
1	1869	4925
1	1927	4926
1	1962	4927
1	1973	4928
1	1948	4929
1	1894	4930
1	1800	4931
1	1691	4932
1	1576	4933
1	1450	4934
1	1337	4935
1	1262	4936
1	1220	4937
1	1215	4938
1	1241	4939
1	1319	4960
1	1406	4961
1	1505	4962
1	1614	4963
1	1724	4964
1	1827	4965
1	1909	4966
1	1960	4967
1	1973	4968
1	1952	4969
1	1898	4970
1	1813	4971
1	1704	4972
1	1594	4973
1	1482	4974
1	1390	4975
1	1315	4976
1	1276	4977
1	1277	4978
1	1298	4979
1	1356	4980
1	1449	4981
1	1553	4982
1	1663	4983
1	1779	4984
1	1885	4985
1	1962	4986
1	2012	4987
1	2021	4988
1	1991	4989
1	1924	4990
1	1825	4991
1	1710	4992
1	1589	4993
1	1472	4994
1	1360	4995
1	1283	4996
1	1233	4997
1	1220	4998
1	1245	4999
1	1302	5000
1	1398	5001
1	1503	5002
1	1611	5003
1	1718	5004
1	1816	5005
1	1880	5006
1	1917	5007
1	1919	5008
1	1886	5009
1	1826	5010
1	1746	5011
1	1649	5012
1	1554	5013
1	1461	5014
1	1384	5015
1	1328	5016
1	1296	5017
1	1294	5018
1	1325	5019
1	1307	4940
1	1394	4941
1	1492	4942
1	1595	4943
1	1704	4944
1	1803	4945
1	1882	4946
1	1926	4947
1	1935	4948
1	1917	4949
1	1868	4950
1	1789	4951
1	1687	4952
1	1581	4953
1	1476	4954
1	1380	4955
1	1309	4956
1	1261	4957
1	1244	4958
1	1266	4959
1	1384	5020
1	1472	5021
1	1567	5022
1	1670	5023
1	1769	5024
1	1862	5025
1	1935	5026
1	1973	5027
1	1974	5028
1	1944	5029
1	1874	5030
1	1774	5031
1	1661	5032
1	1557	5033
1	1450	5034
1	1344	5035
1	1258	5036
1	1207	5037
1	1197	5038
1	1225	5039
1	1291	5040
1	1384	5041
1	1503	5042
1	1622	5043
1	1749	5044
1	1872	5045
1	1961	5046
1	2017	5047
1	2032	5048
1	2006	5049
1	1940	5050
1	1832	5051
1	1711	5052
1	1587	5053
1	1475	5054
1	1377	5055
1	1312	5056
1	1267	5057
1	1265	5058
1	1292	5059
1	1350	5060
1	1439	5061
1	1530	5062
1	1620	5063
1	1717	5064
1	1812	5065
1	1875	5066
1	1920	5067
1	1922	5068
1	1888	5069
1	1825	5070
1	1743	5071
1	1656	5072
1	1568	5073
1	1481	5074
1	1409	5075
1	1357	5076
1	1332	5077
1	1335	5078
1	1362	5079
1	1422	5080
1	1499	5081
1	1595	5082
1	1700	5083
1	1803	5084
1	1896	5085
1	1974	5086
1	2019	5087
1	2030	5088
1	2009	5089
1	1953	5090
1	1862	5091
1	1756	5092
1	1643	5093
1	1528	5094
1	1427	5095
1	1346	5096
1	1296	5097
1	1288	5098
1	1317	5099
1	1374	5100
1	1476	5101
1	1584	5102
1	1703	5103
1	1821	5104
1	1922	5105
1	1989	5106
1	2025	5107
1	2026	5108
1	1996	5109
1	1931	5110
1	1838	5111
1	1725	5112
1	1611	5113
1	1496	5114
1	1398	5115
1	1328	5116
1	1291	5117
1	1282	5118
1	1305	5119
1	1362	5120
1	1450	5121
1	1555	5122
1	1674	5123
1	1796	5124
1	1904	5125
1	1975	5126
1	2017	5127
1	2024	5128
1	1996	5129
1	1942	5130
1	1862	5131
1	1751	5132
1	1642	5133
1	1521	5134
1	1417	5135
1	1319	5136
1	1263	5137
1	1241	5138
1	1258	5139
1	1308	5140
1	1384	5141
1	1490	5142
1	1608	5143
1	1738	5144
1	1854	5145
1	1935	5146
1	1990	5147
1	2000	5148
1	1978	5149
1	1927	5150
1	1845	5151
1	1739	5152
1	1633	5153
1	1521	5154
1	1422	5155
1	1332	5156
1	1288	5157
1	1278	5158
1	1298	5159
1	1358	5160
1	1450	5161
1	1550	5162
1	1658	5163
1	1764	5164
1	1865	5165
1	1940	5166
1	1986	5167
1	1998	5168
1	1973	5169
1	1920	5170
1	1834	5171
1	1725	5172
1	1607	5173
1	1489	5174
1	1374	5175
1	1293	5176
1	1242	5177
1	1228	5178
1	1250	5179
1	1307	5180
1	1398	5181
1	1503	5182
1	1611	5183
1	1713	5184
1	1812	5185
1	1883	5186
1	1931	5187
1	1947	5188
1	1922	5189
1	1869	5190
1	1790	5191
1	1690	5192
1	1584	5193
1	1475	5194
1	1368	5195
1	1286	5196
1	1233	5197
1	1215	5198
1	1234	5199
1	1288	5200
1	1370	5201
1	1476	5202
1	1594	5203
1	1719	5204
1	1843	5205
1	1945	5206
1	2003	5207
1	2017	5208
1	1999	5209
1	1945	5210
1	1860	5211
1	1752	5212
1	1638	5213
1	1524	5214
1	1427	5215
1	1351	5216
1	1316	5217
1	1317	5218
1	1346	5219
1	1416	5220
1	1510	5221
1	1612	5222
1	1733	5223
1	1861	5224
1	1976	5225
1	2079	5226
1	2154	5227
1	2196	5228
1	2210	5229
1	2192	5230
1	2133	5231
1	2060	5232
1	1971	5233
1	1871	5234
1	1781	5235
1	1718	5236
1	1698	5237
1	1711	5238
1	1751	5239
1	1837	5240
1	1933	5241
1	2048	5242
1	2170	5243
1	2293	5244
1	2412	5245
1	2505	5246
1	2568	5247
1	2596	5248
1	2583	5249
1	2535	5250
1	2457	5251
1	2333	5252
1	2191	5253
1	2047	5254
1	1898	5255
1	1764	5256
1	1664	5257
1	1595	5258
1	1558	5259
1	1555	5260
1	1577	5261
1	1622	5262
1	1684	5263
1	1751	5264
1	1818	5265
1	1872	5266
1	1898	5267
1	1897	5268
1	1870	5269
1	1818	5270
1	1741	5271
1	1654	5272
1	1559	5273
1	1462	5274
1	1375	5275
1	1310	5276
1	1270	5277
1	1266	5278
1	1293	5279
1	1350	5300
1	1434	5301
1	1533	5302
1	1647	5303
1	1762	5304
1	1872	5305
1	1958	5306
1	2013	5307
1	2030	5308
1	2015	5309
1	1961	5310
1	1883	5311
1	1791	5312
1	1692	5313
1	1589	5314
1	1490	5315
1	1405	5316
1	1342	5317
1	1319	5318
1	1332	5319
1	1353	5280
1	1451	5281
1	1556	5282
1	1665	5283
1	1775	5284
1	1875	5285
1	1949	5286
1	2000	5287
1	2009	5288
1	1987	5289
1	1926	5290
1	1843	5291
1	1744	5292
1	1639	5293
1	1530	5294
1	1431	5295
1	1354	5296
1	1305	5297
1	1290	5298
1	1305	5299
1	1382	5320
1	1458	5321
1	1551	5322
1	1646	5323
1	1742	5324
1	1835	5325
1	1909	5326
1	1962	5327
1	1985	5328
1	1976	5329
1	1940	5330
1	1869	5331
1	1760	5332
1	1647	5333
1	1528	5334
1	1424	5335
1	1346	5336
1	1309	5337
1	1310	5338
1	1343	5339
1	1415	5340
1	1501	5341
1	1607	5342
1	1715	5343
1	1834	5344
1	1944	5345
1	2018	5346
1	2066	5347
1	2075	5348
1	2049	5349
1	1987	5350
1	1885	5351
1	1777	5352
1	1660	5353
1	1538	5354
1	1429	5355
1	1346	5356
1	1303	5357
1	1306	5358
1	1345	5359
1	1422	5360
1	1517	5361
1	1633	5362
1	1751	5363
1	1872	5364
1	1974	5365
1	2051	5366
1	2096	5367
1	2107	5368
1	2083	5369
1	2029	5370
1	1948	5371
1	1842	5372
1	1720	5373
1	1603	5374
1	1503	5375
1	1435	5376
1	1393	5377
1	1377	5378
1	1402	5379
1	1453	5380
1	1527	5381
1	1616	5382
1	1715	5383
1	1823	5384
1	1919	5385
1	2002	5386
1	2059	5387
1	2076	5388
1	2057	5389
1	2005	5390
1	1919	5391
1	1819	5392
1	1704	5393
1	1581	5394
1	1472	5395
1	1391	5396
1	1337	5397
1	1325	5398
1	1346	5399
1	1409	5400
1	1494	5401
1	1597	5402
1	1712	5403
1	1836	5404
1	1948	5405
1	2038	5406
1	2093	5407
1	2105	5408
1	2079	5409
1	2019	5410
1	1926	5411
1	1823	5412
1	1712	5413
1	1600	5414
1	1503	5415
1	1440	5416
1	1399	5417
1	1391	5418
1	1413	5419
1	1472	5420
1	1553	5421
1	1647	5422
1	1750	5423
1	1860	5424
1	1967	5425
1	2048	5426
1	2109	5427
1	2131	5428
1	2115	5429
1	2064	5430
1	1991	5431
1	1893	5432
1	1782	5433
1	1665	5434
1	1581	5435
1	1507	5436
1	1469	5437
1	1466	5438
1	1490	5439
1	1548	5440
1	1632	5441
1	1727	5442
1	1830	5443
1	1932	5444
1	2027	5445
1	2102	5446
1	2145	5447
1	2146	5448
1	2109	5449
1	2052	5450
1	1961	5451
1	1851	5452
1	1730	5453
1	1616	5454
1	1526	5455
1	1451	5456
1	1423	5457
1	1423	5458
1	1450	5459
1	1521	5460
1	1622	5461
1	1738	5462
1	1862	5463
1	1976	5464
1	2077	5465
1	2149	5466
1	2183	5467
1	2171	5468
1	2129	5469
1	2051	5470
1	1947	5471
1	1833	5472
1	1712	5473
1	1595	5474
1	1503	5475
1	1445	5476
1	1413	5477
1	1418	5478
1	1458	5479
1	1533	5480
1	1634	5481
1	1742	5482
1	1857	5483
1	1973	5484
1	2071	5485
1	2140	5486
1	2182	5487
1	2183	5488
1	2148	5489
1	2076	5490
1	1979	5491
1	1858	5492
1	1726	5493
1	1597	5494
1	1491	5495
1	1422	5496
1	1379	5497
1	1381	5498
1	1418	5499
1	1475	5500
1	1555	5501
1	1647	5502
1	1757	5503
1	1875	5504
1	1974	5505
1	2056	5506
1	2105	5507
1	2113	5508
1	2084	5509
1	2019	5510
1	1932	5511
1	1832	5512
1	1723	5513
1	1616	5514
1	1523	5515
1	1450	5516
1	1410	5517
1	1408	5518
1	1437	5519
1	1495	5520
1	1581	5521
1	1661	5522
1	1751	5523
1	1848	5524
1	1927	5525
1	1989	5526
1	2025	5527
1	2027	5528
1	2000	5529
1	1942	5530
1	1846	5531
1	1737	5532
1	1628	5533
1	1512	5534
1	1409	5535
1	1318	5536
1	1263	5537
1	1246	5538
1	1267	5539
1	1328	5540
1	1424	5541
1	1529	5542
1	1645	5543
1	1762	5544
1	1869	5545
1	1948	5546
1	1998	5547
1	2010	5548
1	1986	5549
1	1924	5550
1	1829	5551
1	1710	5552
1	1589	5553
1	1477	5554
1	1374	5555
1	1303	5556
1	1259	5557
1	1251	5558
1	1279	5559
1	1347	5560
1	1450	5561
1	1566	5562
1	1678	5563
1	1783	5564
1	1877	5565
1	1948	5566
1	1982	5567
1	1988	5568
1	1959	5569
1	1897	5570
1	1817	5571
1	1716	5572
1	1611	5573
1	1506	5574
1	1423	5575
1	1350	5576
1	1319	5577
1	1319	5578
1	1346	5579
1	1413	5580
1	1503	5581
1	1599	5582
1	1699	5583
1	1799	5584
1	1891	5585
1	1955	5586
1	1993	5587
1	1998	5588
1	1961	5589
1	1875	5590
1	1746	5591
1	1625	5592
1	1497	5593
1	1366	5594
1	1258	5595
1	1186	5596
1	1143	5597
1	1141	5598
1	1179	5599
1	1256	5600
1	1362	5601
1	1489	5602
1	1622	5603
1	1764	5604
1	1892	5605
1	1975	5606
1	2024	5607
1	2027	5608
1	1998	5609
1	1927	5610
1	1836	5611
1	1723	5612
1	1607	5613
1	1490	5614
1	1394	5615
1	1322	5616
1	1288	5617
1	1287	5618
1	1320	5619
1	1399	5640
1	1481	5641
1	1584	5642
1	1696	5643
1	1796	5644
1	1898	5645
1	1955	5646
1	1988	5647
1	1988	5648
1	1958	5649
1	1895	5650
1	1789	5651
1	1692	5652
1	1583	5653
1	1476	5654
1	1382	5655
1	1319	5656
1	1282	5657
1	1291	5658
1	1332	5659
1	1384	5620
1	1474	5621
1	1575	5622
1	1686	5623
1	1791	5624
1	1887	5625
1	1953	5626
1	1985	5627
1	1974	5628
1	1938	5629
1	1875	5630
1	1790	5631
1	1685	5632
1	1581	5633
1	1476	5634
1	1396	5635
1	1327	5636
1	1299	5637
1	1304	5638
1	1332	5639
1	1413	5660
1	1515	5661
1	1624	5662
1	1729	5663
1	1838	5664
1	1920	5665
1	1971	5666
1	1995	5667
1	1984	5668
1	1948	5669
1	1888	5670
1	1809	5671
1	1706	5672
1	1606	5673
1	1503	5674
1	1422	5675
1	1354	5676
1	1320	5677
1	1320	5678
1	1348	5679
1	1410	5680
1	1490	5681
1	1583	5682
1	1694	5683
1	1814	5684
1	1917	5685
1	1996	5686
1	2037	5687
1	2039	5688
1	2008	5689
1	1944	5690
1	1849	5691
1	1743	5692
1	1646	5693
1	1549	5694
1	1464	5695
1	1398	5696
1	1361	5697
1	1368	5698
1	1403	5699
1	1469	5700
1	1556	5701
1	1655	5702
1	1748	5703
1	1842	5704
1	1914	5705
1	1976	5706
1	2018	5707
1	2029	5708
1	2012	5709
1	1960	5710
1	1873	5711
1	1768	5712
1	1660	5713
1	1554	5714
1	1458	5715
1	1377	5716
1	1325	5717
1	1311	5718
1	1334	5719
1	1398	5720
1	1481	5721
1	1584	5722
1	1695	5723
1	1817	5724
1	1922	5725
1	2000	5726
1	2053	5727
1	2067	5728
1	2045	5729
1	1981	5730
1	1890	5731
1	1769	5732
1	1650	5733
1	1515	5734
1	1416	5735
1	1332	5736
1	1294	5737
1	1298	5738
1	1334	5739
1	1404	5740
1	1490	5741
1	1591	5742
1	1692	5743
1	1796	5744
1	1895	5745
1	1960	5746
1	2003	5747
1	2010	5748
1	1978	5749
1	1919	5750
1	1829	5751
1	1720	5752
1	1613	5753
1	1512	5754
1	1424	5755
1	1344	5756
1	1301	5757
1	1293	5758
1	1320	5759
1	1397	5760
1	1494	5761
1	1607	5762
1	1728	5763
1	1854	5764
1	1955	5765
1	2026	5766
1	2061	5767
1	2050	5768
1	2004	5769
1	1929	5770
1	1827	5771
1	1719	5772
1	1615	5773
1	1511	5774
1	1429	5775
1	1361	5776
1	1325	5777
1	1319	5778
1	1344	5779
1	1402	5780
1	1484	5781
1	1582	5782
1	1692	5783
1	1800	5784
1	1897	5785
1	1966	5786
1	2014	5787
1	2026	5788
1	2009	5789
1	1959	5790
1	1895	5791
1	1815	5792
1	1712	5793
1	1609	5794
1	1525	5795
1	1456	5796
1	1413	5797
1	1398	5798
1	1416	5799
1	1467	5800
1	1553	5801
1	1645	5802
1	1752	5803
1	1858	5804
1	1948	5805
1	2012	5806
1	2037	5807
1	2032	5808
1	2003	5809
1	1944	5810
1	1858	5811
1	1749	5812
1	1634	5813
1	1518	5814
1	1422	5815
1	1336	5816
1	1292	5817
1	1286	5818
1	1319	5819
1	1393	5820
1	1495	5821
1	1607	5822
1	1724	5823
1	1845	5824
1	1947	5825
1	2019	5826
1	2058	5827
1	2057	5828
1	2027	5829
1	1962	5830
1	1862	5831
1	1751	5832
1	1636	5833
1	1526	5834
1	1431	5835
1	1362	5836
1	1330	5837
1	1319	5838
1	1333	5839
1	1395	5840
1	1476	5841
1	1580	5842
1	1686	5843
1	1791	5844
1	1895	5845
1	1964	5846
1	2011	5847
1	2021	5848
1	1998	5849
1	1945	5850
1	1856	5851
1	1749	5852
1	1638	5853
1	1540	5854
1	1456	5855
1	1405	5856
1	1376	5857
1	1384	5858
1	1423	5859
1	1490	5860
1	1581	5861
1	1667	5862
1	1760	5863
1	1850	5864
1	1926	5865
1	1979	5866
1	2004	5867
1	2000	5868
1	1966	5869
1	1900	5870
1	1816	5871
1	1712	5872
1	1613	5873
1	1519	5874
1	1445	5875
1	1384	5876
1	1361	5877
1	1374	5878
1	1430	5879
1	1415	5900
1	1502	5901
1	1603	5902
1	1711	5903
1	1824	5904
1	1917	5905
1	1974	5906
1	2002	5907
1	1996	5908
1	1963	5909
1	1904	5910
1	1817	5911
1	1712	5912
1	1607	5913
1	1510	5914
1	1436	5915
1	1380	5916
1	1368	5917
1	1381	5918
1	1423	5919
1	1513	5880
1	1608	5881
1	1710	5882
1	1817	5883
1	1917	5884
1	2000	5885
1	2053	5886
1	2079	5887
1	2070	5888
1	2026	5889
1	1951	5890
1	1847	5891
1	1737	5892
1	1623	5893
1	1511	5894
1	1427	5895
1	1363	5896
1	1330	5897
1	1328	5898
1	1354	5899
1	1481	5920
1	1557	5921
1	1644	5922
1	1742	5923
1	1844	5924
1	1937	5925
1	2009	5926
1	2048	5927
1	2051	5928
1	2014	5929
1	1949	5930
1	1860	5931
1	1746	5932
1	1630	5933
1	1519	5934
1	1424	5935
1	1355	5936
1	1323	5937
1	1328	5938
1	1363	5939
1	1436	5940
1	1523	5941
1	1633	5942
1	1748	5943
1	1857	5944
1	1950	5945
1	2008	5946
1	2039	5947
1	2034	5948
1	2003	5949
1	1948	5950
1	1848	5951
1	1756	5952
1	1652	5953
1	1552	5954
1	1476	5955
1	1423	5956
1	1396	5957
1	1399	5958
1	1428	5959
1	1481	5960
1	1557	5961
1	1647	5962
1	1747	5963
1	1845	5964
1	1924	5965
1	1976	5966
1	2003	5967
1	1998	5968
1	1963	5969
1	1904	5970
1	1826	5971
1	1731	5972
1	1634	5973
1	1540	5974
1	1454	5975
1	1398	5976
1	1366	5977
1	1371	5978
1	1412	5979
1	1464	6000
1	1558	6001
1	1659	6002
1	1762	6003
1	1869	6004
1	1961	6005
1	2026	6006
1	2061	6007
1	2058	6008
1	2026	6009
1	1960	6010
1	1857	6011
1	1747	6012
1	1635	6013
1	1529	6014
1	1441	6015
1	1373	6016
1	1332	6017
1	1322	6018
1	1352	6019
1	1482	5980
1	1575	5981
1	1678	5982
1	1786	5983
1	1894	5984
1	1976	5985
1	2037	5986
1	2061	5987
1	2048	5988
1	2000	5989
1	1932	5990
1	1834	5991
1	1725	5992
1	1608	5993
1	1494	5994
1	1402	5995
1	1341	5996
1	1319	5997
1	1332	5998
1	1381	5999
1	1422	6020
1	1507	6021
1	1607	6022
1	1712	6023
1	1824	6024
1	1922	6025
1	1998	6026
1	2042	6027
1	2053	6028
1	2037	6029
1	1989	6030
1	1913	6031
1	1803	6032
1	1685	6033
1	1571	6034
1	1472	6035
1	1397	6036
1	1350	6037
1	1341	6038
1	1364	6039
1	1425	6040
1	1517	6041
1	1625	6042
1	1744	6043
1	1860	6044
1	1961	6045
1	2026	6046
1	2061	6047
1	2063	6048
1	2029	6049
1	1971	6050
1	1875	6051
1	1764	6052
1	1647	6053
1	1530	6054
1	1430	6055
1	1341	6056
1	1307	6057
1	1305	6058
1	1338	6059
1	1413	6060
1	1517	6061
1	1633	6062
1	1750	6063
1	1867	6064
1	1966	6065
1	2042	6066
1	2091	6067
1	2107	6068
1	2099	6069
1	2052	6070
1	1961	6071
1	1862	6072
1	1742	6073
1	1632	6074
1	1531	6075
1	1463	6076
1	1423	6077
1	1416	6078
1	1441	6079
1	1495	6080
1	1579	6081
1	1674	6082
1	1779	6083
1	1878	6084
1	1958	6085
1	2005	6086
1	2032	6087
1	2025	6088
1	1985	6089
1	1921	6090
1	1832	6091
1	1720	6092
1	1606	6093
1	1495	6094
1	1412	6095
1	1355	6096
1	1333	6097
1	1348	6098
1	1397	6099
1	1476	6100
1	1585	6101
1	1691	6102
1	1818	6103
1	1937	6104
1	2037	6105
1	2113	6106
1	2153	6107
1	2163	6108
1	2142	6109
1	2082	6110
1	2000	6111
1	1895	6112
1	1782	6113
1	1672	6114
1	1579	6115
1	1500	6116
1	1452	6117
1	1441	6118
1	1459	6119
1	1454	6140
1	1534	6141
1	1626	6142
1	1733	6143
1	1843	6144
1	1934	6145
1	1991	6146
1	2022	6147
1	2016	6148
1	1982	6149
1	1921	6150
1	1834	6151
1	1716	6152
1	1603	6153
1	1499	6154
1	1408	6155
1	1344	6156
1	1312	6157
1	1316	6158
1	1351	6159
1	1512	6120
1	1593	6121
1	1674	6122
1	1764	6123
1	1858	6124
1	1934	6125
1	1980	6126
1	2007	6127
1	2006	6128
1	1976	6129
1	1916	6130
1	1818	6131
1	1719	6132
1	1620	6133
1	1528	6134
1	1450	6135
1	1398	6136
1	1372	6137
1	1368	6138
1	1400	6139
1	1427	6160
1	1530	6161
1	1630	6162
1	1738	6163
1	1845	6164
1	1935	6165
1	2009	6166
1	2040	6167
1	2035	6168
1	2000	6169
1	1927	6170
1	1838	6171
1	1724	6172
1	1613	6173
1	1504	6174
1	1416	6175
1	1337	6176
1	1307	6177
1	1319	6178
1	1368	6179
1	1372	6200
1	1476	6201
1	1589	6202
1	1710	6203
1	1826	6204
1	1922	6205
1	1985	6206
1	2017	6207
1	2013	6208
1	1974	6209
1	1908	6210
1	1828	6211
1	1728	6212
1	1625	6213
1	1519	6214
1	1440	6215
1	1395	6216
1	1384	6217
1	1427	6218
1	1503	6219
1	1451	6180
1	1557	6181
1	1665	6182
1	1774	6183
1	1878	6184
1	1961	6185
1	2014	6186
1	2032	6187
1	2012	6188
1	1957	6189
1	1877	6190
1	1764	6191
1	1656	6192
1	1543	6193
1	1436	6194
1	1341	6195
1	1282	6196
1	1254	6197
1	1261	6198
1	1298	6199
1	1610	6220
1	1739	6221
1	1867	6222
1	2000	6223
1	2120	6224
1	2213	6225
1	2287	6226
1	2314	6227
1	2312	6228
1	2276	6229
1	2211	6230
1	2131	6231
1	2034	6232
1	1934	6233
1	1843	6234
1	1766	6235
1	1731	6236
1	1723	6237
1	1747	6238
1	1813	6239
1	1314	6260
1	1411	6261
1	1529	6262
1	1658	6263
1	1781	6264
1	1890	6265
1	1961	6266
1	2000	6267
1	2000	6268
1	1957	6269
1	1872	6270
1	1764	6271
1	1651	6272
1	1534	6273
1	1423	6274
1	1327	6275
1	1272	6276
1	1256	6277
1	1271	6278
1	1323	6279
1	1913	6240
1	2043	6241
1	2188	6242
1	2345	6243
1	2485	6244
1	2585	6245
1	2646	6246
1	2658	6247
1	2622	6248
1	2529	6249
1	2398	6250
1	2193	6251
1	2028	6252
1	1841	6253
1	1651	6254
1	1490	6255
1	1355	6256
1	1274	6257
1	1241	6258
1	1255	6259
1	1407	6280
1	1503	6281
1	1609	6282
1	1717	6283
1	1829	6284
1	1919	6285
1	1989	6286
1	2015	6287
1	2000	6288
1	1953	6289
1	1877	6290
1	1764	6291
1	1657	6292
1	1530	6293
1	1420	6294
1	1323	6295
1	1267	6296
1	1238	6297
1	1242	6298
1	1287	6299
1	1364	6300
1	1472	6301
1	1575	6302
1	1679	6303
1	1775	6304
1	1865	6305
1	1926	6306
1	1953	6307
1	1944	6308
1	1897	6309
1	1826	6310
1	1726	6311
1	1636	6312
1	1547	6313
1	1456	6314
1	1380	6315
1	1332	6316
1	1309	6317
1	1314	6318
1	1350	6319
1	1423	6320
1	1513	6321
1	1616	6322
1	1726	6323
1	1843	6324
1	1939	6325
1	2007	6326
1	2043	6327
1	2045	6328
1	2001	6329
1	1930	6330
1	1839	6331
1	1710	6332
1	1581	6333
1	1459	6334
1	1350	6335
1	1268	6336
1	1227	6337
1	1228	6338
1	1261	6339
1	1394	6360
1	1492	6361
1	1606	6362
1	1726	6363
1	1844	6364
1	1948	6365
1	2026	6366
1	2065	6367
1	2061	6368
1	2018	6369
1	1940	6370
1	1822	6371
1	1712	6372
1	1595	6373
1	1484	6374
1	1394	6375
1	1322	6376
1	1286	6377
1	1285	6378
1	1314	6379
1	1327	6340
1	1428	6341
1	1541	6342
1	1656	6343
1	1764	6344
1	1857	6345
1	1927	6346
1	1963	6347
1	1975	6348
1	1950	6349
1	1901	6350
1	1822	6351
1	1719	6352
1	1609	6353
1	1500	6354
1	1404	6355
1	1322	6356
1	1292	6357
1	1290	6358
1	1320	6359
1	1373	6380
1	1468	6381
1	1580	6382
1	1701	6383
1	1823	6384
1	1922	6385
1	1994	6386
1	2032	6387
1	2039	6388
1	2012	6389
1	1948	6390
1	1862	6391
1	1746	6392
1	1634	6393
1	1530	6394
1	1450	6395
1	1379	6396
1	1343	6397
1	1341	6398
1	1377	6399
1	1453	6400
1	1556	6401
1	1661	6402
1	1778	6403
1	1884	6404
1	1963	6405
1	2025	6406
1	2052	6407
1	2042	6408
1	2003	6409
1	1933	6410
1	1842	6411
1	1737	6412
1	1629	6413
1	1526	6414
1	1437	6415
1	1371	6416
1	1345	6417
1	1350	6418
1	1398	6419
1	1472	6440
1	1555	6441
1	1656	6442
1	1760	6443
1	1864	6444
1	1952	6445
1	2016	6446
1	2056	6447
1	2066	6448
1	2042	6449
1	1983	6450
1	1897	6451
1	1787	6452
1	1688	6453
1	1593	6454
1	1510	6455
1	1451	6456
1	1425	6457
1	1436	6458
1	1472	6459
1	1476	6420
1	1593	6421
1	1710	6422
1	1834	6423
1	1952	6424
1	2052	6425
1	2117	6426
1	2148	6427
1	2136	6428
1	2089	6429
1	2009	6430
1	1893	6431
1	1782	6432
1	1666	6433
1	1557	6434
1	1468	6435
1	1399	6436
1	1370	6437
1	1369	6438
1	1404	6439
1	1490	6480
1	1593	6481
1	1700	6482
1	1814	6483
1	1914	6484
1	1992	6485
1	2040	6486
1	2057	6487
1	2037	6488
1	1984	6489
1	1904	6490
1	1791	6491
1	1687	6492
1	1581	6493
1	1479	6494
1	1398	6495
1	1346	6496
1	1328	6497
1	1341	6498
1	1379	6499
1	1545	6460
1	1648	6461
1	1743	6462
1	1857	6463
1	1958	6464
1	2040	6465
1	2106	6466
1	2137	6467
1	2131	6468
1	2092	6469
1	2022	6470
1	1930	6471
1	1823	6472
1	1700	6473
1	1580	6474
1	1476	6475
1	1395	6476
1	1362	6477
1	1371	6478
1	1417	6479
1	1453	6500
1	1541	6501
1	1634	6502
1	1737	6503
1	1835	6504
1	1904	6505
1	1940	6506
1	1948	6507
1	1935	6508
1	1898	6509
1	1836	6510
1	1742	6511
1	1638	6512
1	1529	6513
1	1424	6514
1	1330	6515
1	1267	6516
1	1243	6517
1	1262	6518
1	1310	6519
1	1384	6520
1	1479	6521
1	1581	6522
1	1695	6523
1	1802	6524
1	1895	6525
1	1964	6526
1	1995	6527
1	1988	6528
1	1944	6529
1	1864	6530
1	1754	6531
1	1634	6532
1	1513	6533
1	1400	6534
1	1296	6535
1	1227	6536
1	1183	6537
1	1175	6538
1	1211	6539
1	1274	6540
1	1348	6541
1	1443	6542
1	1549	6543
1	1647	6544
1	1737	6545
1	1795	6546
1	1835	6547
1	1840	6548
1	1814	6549
1	1749	6550
1	1634	6551
1	1544	6552
1	1430	6553
1	1308	6554
1	1202	6555
1	1134	6556
1	1099	6557
1	1110	6558
1	1160	6559
1	1186	6580
1	1269	6581
1	1360	6582
1	1469	6583
1	1572	6584
1	1662	6585
1	1738	6586
1	1772	6587
1	1776	6588
1	1751	6589
1	1687	6590
1	1590	6591
1	1499	6592
1	1384	6593
1	1276	6594
1	1193	6595
1	1146	6596
1	1134	6597
1	1157	6598
1	1210	6599
1	1286	6600
1	1395	6601
1	1500	6602
1	1598	6603
1	1687	6604
1	1767	6605
1	1840	6606
1	1875	6607
1	1881	6608
1	1850	6609
1	1772	6610
1	1656	6611
1	1546	6612
1	1424	6613
1	1298	6614
1	1197	6615
1	1129	6616
1	1093	6617
1	1088	6618
1	1123	6619
1	1240	6580
1	1341	6581
1	1456	6582
1	1580	6583
1	1696	6584
1	1791	6585
1	1859	6586
1	1891	6587
1	1890	6588
1	1854	6589
1	1773	6590
1	1674	6591
1	1555	6592
1	1425	6593
1	1293	6594
1	1186	6595
1	1118	6596
1	1084	6597
1	1086	6598
1	1123	6599
1	1191	6620
1	1293	6621
1	1420	6622
1	1546	6623
1	1671	6624
1	1776	6625
1	1859	6626
1	1894	6627
1	1893	6628
1	1856	6629
1	1782	6630
1	1689	6631
1	1581	6632
1	1459	6633
1	1353	6634
1	1268	6635
1	1213	6636
1	1188	6637
1	1201	6638
1	1241	6639
1	1307	6640
1	1395	6641
1	1481	6642
1	1567	6643
1	1647	6644
1	1714	6645
1	1764	6646
1	1786	6647
1	1773	6648
1	1734	6649
1	1664	6650
1	1577	6651
1	1476	6652
1	1372	6653
1	1275	6654
1	1194	6655
1	1135	6656
1	1116	6657
1	1128	6658
1	1178	6659
1	1261	6660
1	1372	6661
1	1489	6662
1	1607	6663
1	1713	6664
1	1800	6665
1	1859	6666
1	1886	6667
1	1887	6668
1	1857	6669
1	1790	6670
1	1682	6671
1	1584	6672
1	1476	6673
1	1374	6674
1	1297	6675
1	1260	6676
1	1243	6677
1	1257	6678
1	1296	6679
1	1372	6680
1	1468	6681
1	1572	6682
1	1679	6683
1	1778	6684
1	1860	6685
1	1904	6686
1	1920	6687
1	1903	6688
1	1860	6689
1	1782	6690
1	1697	6691
1	1599	6692
1	1498	6693
1	1398	6694
1	1317	6695
1	1259	6696
1	1236	6697
1	1241	6698
1	1278	6699
1	1338	6700
1	1422	6701
1	1490	6702
1	1582	6703
1	1672	6704
1	1742	6705
1	1795	6706
1	1820	6707
1	1816	6708
1	1777	6709
1	1718	6710
1	1639	6711
1	1553	6712
1	1458	6713
1	1368	6714
1	1296	6715
1	1241	6716
1	1222	6717
1	1229	6718
1	1271	6719
1	1351	6740
1	1458	6741
1	1571	6742
1	1687	6743
1	1800	6744
1	1893	6745
1	1946	6746
1	1961	6747
1	1948	6748
1	1904	6749
1	1828	6750
1	1724	6751
1	1607	6752
1	1499	6753
1	1398	6754
1	1309	6755
1	1260	6756
1	1247	6757
1	1272	6758
1	1327	6759
1	1346	6720
1	1452	6721
1	1553	6722
1	1652	6723
1	1746	6724
1	1829	6725
1	1883	6726
1	1904	6727
1	1885	6728
1	1836	6729
1	1755	6730
1	1645	6731
1	1554	6732
1	1438	6733
1	1334	6734
1	1259	6735
1	1211	6736
1	1201	6737
1	1215	6738
1	1269	6739
1	1454	6780
1	1566	6781
1	1670	6782
1	1769	6783
1	1865	6784
1	1942	6785
1	1996	6786
1	2016	6787
1	2003	6788
1	1963	6789
1	1885	6790
1	1764	6791
1	1674	6792
1	1568	6793
1	1474	6794
1	1384	6795
1	1332	6796
1	1308	6797
1	1320	6798
1	1361	6799
1	1413	6760
1	1524	6761
1	1619	6762
1	1725	6763
1	1827	6764
1	1900	6765
1	1950	6766
1	1960	6767
1	1929	6768
1	1865	6769
1	1764	6770
1	1655	6771
1	1542	6772
1	1438	6773
1	1346	6774
1	1292	6775
1	1261	6776
1	1263	6777
1	1296	6778
1	1362	6779
1	1437	6800
1	1534	6801
1	1636	6802
1	1741	6803
1	1841	6804
1	1914	6805
1	1956	6806
1	1971	6807
1	1959	6808
1	1919	6809
1	1856	6810
1	1764	6811
1	1668	6812
1	1570	6813
1	1475	6814
1	1400	6815
1	1350	6816
1	1338	6817
1	1359	6818
1	1413	6819
1	1400	6840
1	1489	6841
1	1602	6842
1	1721	6843
1	1847	6844
1	1965	6845
1	2044	6846
1	2090	6847
1	2103	6848
1	2079	6849
1	2027	6850
1	1932	6851
1	1856	6852
1	1755	6853
1	1662	6854
1	1581	6855
1	1525	6856
1	1497	6857
1	1506	6858
1	1555	6859
1	1491	6820
1	1600	6821
1	1702	6822
1	1829	6823
1	1944	6824
1	2045	6825
1	2125	6826
1	2161	6827
1	2161	6828
1	2122	6829
1	2048	6830
1	1948	6831
1	1822	6832
1	1681	6833
1	1566	6834
1	1459	6835
1	1377	6836
1	1332	6837
1	1322	6838
1	1343	6839
1	1638	6860
1	1743	6861
1	1860	6862
1	1968	6863
1	2065	6864
1	2144	6865
1	2191	6866
1	2205	6867
1	2181	6868
1	2122	6869
1	2035	6870
1	1939	6871
1	1831	6872
1	1716	6873
1	1618	6874
1	1547	6875
1	1504	6876
1	1499	6877
1	1522	6878
1	1568	6879
1	1638	6880
1	1734	6881
1	1837	6882
1	1946	6883
1	2051	6884
1	2136	6885
1	2205	6886
1	2236	6887
1	2230	6888
1	2194	6889
1	2131	6890
1	2029	6891
1	1948	6892
1	1845	6893
1	1739	6894
1	1662	6895
1	1610	6896
1	1590	6897
1	1597	6898
1	1632	6899
1	1688	6900
1	1773	6901
1	1865	6902
1	1965	6903
1	2058	6904
1	2146	6905
1	2210	6906
1	2251	6907
1	2260	6908
1	2238	6909
1	2188	6910
1	2107	6911
1	2034	6912
1	1949	6913
1	1868	6914
1	1799	6915
1	1751	6916
1	1726	6917
1	1724	6918
1	1758	6919
1	1826	6920
1	1908	6921
1	2002	6922
1	2105	6923
1	2201	6924
1	2287	6925
1	2346	6926
1	2371	6927
1	2367	6928
1	2327	6929
1	2260	6930
1	2169	6931
1	2061	6932
1	1947	6933
1	1860	6934
1	1789	6935
1	1736	6936
1	1711	6937
1	1716	6938
1	1754	6939
1	1828	6940
1	1914	6941
1	2022	6942
1	2131	6943
1	2245	6944
1	2339	6945
1	2401	6946
1	2433	6947
1	2429	6948
1	2395	6949
1	2343	6950
1	2263	6951
1	2169	6952
1	2066	6953
1	1965	6954
1	1883	6955
1	1821	6956
1	1803	6957
1	1819	6958
1	1866	6959
1	1944	6960
1	2050	6961
1	2158	6962
1	2281	6963
1	2392	6964
1	2482	6965
1	2538	6966
1	2570	6967
1	2566	6968
1	2528	6969
1	2467	6970
1	2350	6971
1	2253	6972
1	2135	6973
1	2029	6974
1	1942	6975
1	1883	6976
1	1852	6977
1	1858	6978
1	1905	6979
1	2125	7000
1	2221	7001
1	2306	7002
1	2412	7003
1	2509	7004
1	2587	7005
1	2652	7006
1	2674	7007
1	2665	7008
1	2637	7009
1	2581	7010
1	2514	7011
1	2422	7012
1	2317	7013
1	2218	7014
1	2135	7015
1	2075	7016
1	2054	7017
1	2065	7018
1	2105	7019
1	1985	6980
1	2088	6981
1	2195	6982
1	2314	6983
1	2421	6984
1	2508	6985
1	2553	6986
1	2569	6987
1	2558	6988
1	2515	6989
1	2443	6990
1	2355	6991
1	2264	6992
1	2170	6993
1	2091	6994
1	2031	6995
1	2001	6996
1	1997	6997
1	2016	6998
1	2058	6999
1	2174	7020
1	2282	7021
1	2390	7022
1	2505	7023
1	2601	7024
1	2687	7025
1	2745	7026
1	2777	7027
1	2770	7028
1	2737	7029
1	2676	7030
1	2573	7031
1	2496	7032
1	2393	7033
1	2305	7034
1	2243	7035
1	2204	7036
1	2210	7037
1	2237	7038
1	2282	7039
1	2367	7040
1	2466	7041
1	2561	7042
1	2668	7043
1	2765	7044
1	2853	7045
1	2917	7046
1	2941	7047
1	2933	7048
1	2885	7049
1	2801	7050
1	2696	7051
1	2580	7052
1	2476	7053
1	2367	7054
1	2279	7055
1	2221	7056
1	2199	7057
1	2210	7058
1	2257	7059
1	2328	7060
1	2431	7061
1	2513	7062
1	2605	7063
1	2708	7064
1	2800	7065
1	2871	7066
1	2917	7067
1	2919	7068
1	2884	7069
1	2815	7070
1	2728	7071
1	2632	7072
1	2532	7073
1	2441	7074
1	2358	7075
1	2290	7076
1	2273	7077
1	2288	7078
1	2341	7079
1	2429	7080
1	2532	7081
1	2638	7082
1	2744	7083
1	2841	7084
1	2925	7085
1	2977	7086
1	2991	7087
1	2971	7088
1	2923	7089
1	2848	7090
1	2736	7091
1	2658	7092
1	2568	7093
1	2491	7094
1	2425	7095
1	2388	7096
1	2379	7097
1	2400	7098
1	2461	7099
1	2545	7100
1	2658	7101
1	2778	7102
1	2896	7103
1	3005	7104
1	3094	7105
1	3130	7106
1	3130	7107
1	3130	7108
1	3084	7109
1	2999	7110
1	2900	7111
1	2807	7112
1	2711	7113
1	2622	7114
1	2544	7115
1	2497	7116
1	2474	7117
1	2485	7118
1	2520	7119
1	2591	7120
1	2694	7121
1	2789	7122
1	2898	7123
1	3006	7124
1	3099	7125
1	3130	7126
1	3130	7127
1	3130	7128
1	3114	7129
1	3039	7130
1	2941	7131
1	2828	7132
1	2716	7133
1	2631	7134
1	2555	7135
1	2512	7136
1	2499	7137
1	2519	7138
1	2571	7139
1	2654	7140
1	2760	7141
1	2885	7142
1	3016	7143
1	3130	7144
1	3130	7145
1	3130	7146
1	3130	7147
1	3130	7148
1	3130	7149
1	3130	7150
1	3130	7151
1	3062	7152
1	2966	7153
1	2885	7154
1	2829	7155
1	2804	7156
1	2818	7157
1	2864	7158
1	2939	7159
1	3045	7160
1	3130	7161
1	3130	7162
1	3130	7163
1	3130	7164
1	3130	7165
1	3130	7166
1	3130	7167
1	3130	7168
1	3130	7169
1	3130	7170
1	3130	7171
1	3130	7172
1	3130	7173
1	3130	7174
1	3130	7175
1	3130	7176
1	3130	7177
1	3130	7178
1	3130	7179
1	3130	7180
1	3130	7181
1	3130	7182
1	3130	7183
1	3130	7184
1	3130	7185
1	3130	7186
1	3130	7187
1	3130	7188
1	3130	7189
1	3130	7190
1	3130	7191
1	3130	7192
1	3130	7193
1	3130	7194
1	3130	7195
1	3130	7196
1	3130	7197
1	3119	7198
1	3101	7199
1	3111	7200
1	3130	7201
1	3130	7202
1	3130	7203
1	3130	7204
1	3130	7205
1	3130	7206
1	3130	7207
1	3130	7208
1	3130	7209
1	3130	7210
1	3130	7211
1	3130	7212
1	3130	7213
1	3109	7214
1	3033	7215
1	2979	7216
1	2964	7217
1	2977	7218
1	3020	7219
1	3098	7220
1	3130	7221
1	3130	7222
1	3130	7223
1	3130	7224
1	3130	7225
1	3130	7226
1	3130	7227
1	3130	7228
1	3130	7229
1	3130	7230
1	3130	7231
1	3130	7232
1	3130	7233
1	3130	7234
1	3088	7235
1	3065	7236
1	3055	7237
1	3076	7238
1	3130	7239
1	3130	7260
1	3130	7261
1	3130	7262
1	3130	7263
1	3130	7264
1	3130	7265
1	3130	7266
1	3130	7267
1	3130	7268
1	3130	7269
1	3130	7270
1	3130	7271
1	3130	7272
1	3130	7273
1	3130	7274
1	3130	7275
1	3130	7276
1	3130	7277
1	3130	7278
1	3130	7279
1	3130	7240
1	3130	7241
1	3130	7242
1	3130	7243
1	3130	7244
1	3130	7245
1	3130	7246
1	3130	7247
1	3130	7248
1	3130	7249
1	3130	7250
1	3130	7251
1	3130	7252
1	3130	7253
1	3130	7254
1	3130	7255
1	3130	7256
1	3130	7257
1	3130	7258
1	3130	7259
1	3130	7280
1	3130	7281
1	3130	7282
1	3130	7283
1	3130	7284
1	3130	7285
1	3130	7286
1	3130	7287
1	3130	7288
1	3130	7289
1	3130	7290
1	3130	7291
1	3130	7292
1	3130	7293
1	3130	7294
1	3130	7295
1	3130	7296
1	3130	7297
1	3130	7298
1	3130	7299
1	3130	7300
1	3130	7301
1	3130	7302
1	3130	7303
1	3130	7304
1	3130	7305
1	3130	7306
1	3130	7307
1	3130	7308
1	3130	7309
1	3130	7310
1	3130	7311
1	3130	7312
1	3130	7313
1	3130	7314
1	3130	7315
1	3130	7316
1	3130	7317
1	3130	7318
1	3130	7319
1	3130	7320
1	3130	7321
1	3130	7322
1	3130	7323
1	3130	7324
1	3130	7325
1	3130	7326
1	3130	7327
1	3130	7328
1	3130	7329
1	3130	7330
1	3130	7331
1	3130	7332
1	3130	7333
1	3130	7334
1	3130	7335
1	3130	7336
1	3130	7337
1	3130	7338
1	3130	7339
1	3130	7340
1	3130	7341
1	3130	7342
1	3130	7343
1	3130	7344
1	3130	7345
1	3130	7346
1	3130	7347
1	3130	7348
1	3130	7349
1	3130	7350
1	3130	7351
1	3130	7352
1	3130	7353
1	3130	7354
1	3130	7355
1	3130	7356
1	3130	7357
1	3130	7358
1	3130	7359
1	3130	7360
1	3130	7361
1	3130	7362
1	3130	7363
1	3130	7364
1	3130	7365
1	3130	7366
1	3130	7367
1	3130	7368
1	3130	7369
1	3130	7370
1	3130	7371
1	3130	7372
1	3130	7373
1	3130	7374
1	3130	7375
1	3130	7376
1	3130	7377
1	3130	7378
1	3130	7379
1	3130	7380
1	3130	7381
1	3130	7382
1	3130	7383
1	3130	7384
1	3130	7385
1	3130	7386
1	3130	7387
1	3130	7388
1	3130	7389
1	3130	7390
1	3130	7391
1	3130	7392
1	3130	7393
1	3130	7394
1	3130	7395
1	3130	7396
1	3130	7397
1	3130	7398
1	3130	7399
1	3130	7400
1	3130	7401
1	3130	7402
1	3130	7403
1	3130	7404
1	3130	7405
1	3130	7406
1	3130	7407
1	3130	7408
1	3130	7409
1	3130	7410
1	3130	7411
1	3130	7412
1	3130	7413
1	3130	7414
1	3130	7415
1	3130	7416
1	3130	7417
1	3130	7418
1	3130	7419
1	3130	7420
1	3130	7421
1	3130	7422
1	3130	7423
1	3130	7424
1	3130	7425
1	3130	7426
1	3130	7427
1	3130	7428
1	3130	7429
1	3130	7430
1	3130	7431
1	3130	7432
1	3130	7433
1	3130	7434
1	3130	7435
1	3130	7436
1	3130	7437
1	3130	7438
1	3130	7439
1	3130	7440
1	3130	7441
1	3130	7442
1	3130	7443
1	3130	7444
1	3130	7445
1	3130	7446
1	3130	7447
1	3130	7448
1	3130	7449
1	3130	7450
1	3130	7451
1	3130	7452
1	3130	7453
1	3130	7454
1	3130	7455
1	3130	7456
1	3130	7457
1	3130	7458
1	3130	7459
1	3130	7460
1	3130	7461
1	3130	7462
1	3130	7463
1	3130	7464
1	3130	7465
1	3130	7466
1	3130	7467
1	3130	7468
1	3130	7469
1	3130	7470
1	3130	7471
1	3130	7472
1	3130	7473
1	3130	7474
1	3130	7475
1	3130	7476
1	3130	7477
1	3130	7478
1	3130	7479
1	3130	7480
1	3130	7481
1	3130	7482
1	3130	7483
1	3130	7484
1	3130	7485
1	3130	7486
1	3130	7487
1	3130	7488
1	3130	7489
1	3130	7490
1	3130	7491
1	3130	7492
1	3130	7493
1	3130	7494
1	3130	7495
1	3130	7496
1	3130	7497
1	3130	7498
1	3130	7499
1	3130	7500
1	3130	7501
1	3130	7502
1	3130	7503
1	3130	7504
1	3130	7505
1	3130	7506
1	3130	7507
1	3130	7508
1	3130	7509
1	3130	7510
1	3130	7511
1	3130	7512
1	3130	7513
1	3130	7514
1	3130	7515
1	3130	7516
1	3130	7517
1	3130	7518
1	3130	7519
1	3130	7520
1	3130	7521
1	3130	7522
1	3130	7523
1	3130	7524
1	3130	7525
1	3130	7526
1	3130	7527
1	3130	7528
1	3130	7529
1	3130	7530
1	3130	7531
1	3130	7532
1	3130	7533
1	3130	7534
1	3130	7535
1	3130	7536
1	3130	7537
1	3130	7538
1	3130	7539
1	3130	7540
1	3130	7541
1	3130	7542
1	3130	7543
1	3130	7544
1	3130	7545
1	3130	7546
1	3130	7547
1	3130	7548
1	3130	7549
1	3130	7550
1	3130	7551
1	3130	7552
1	3130	7553
1	3130	7554
1	3071	7555
1	3004	7556
1	2987	7557
1	2991	7558
1	3026	7559
1	3087	7560
1	3130	7561
1	3130	7562
1	3130	7563
1	3130	7564
1	3130	7565
1	3130	7566
1	3130	7567
1	3130	7568
1	3130	7569
1	3130	7570
1	3130	7571
1	3130	7572
1	3130	7573
1	3072	7574
1	2999	7575
1	2952	7576
1	2944	7577
1	2958	7578
1	3004	7579
1	3080	7580
1	3130	7581
1	3130	7582
1	3130	7583
1	3130	7584
1	3130	7585
1	3130	7586
1	3130	7587
1	3130	7588
1	3130	7589
1	3130	7590
1	3130	7591
1	3130	7592
1	3102	7593
1	3012	7594
1	2939	7595
1	2886	7596
1	2867	7597
1	2869	7598
1	2901	7599
1	2966	7600
1	3076	7601
1	3130	7602
1	3130	7603
1	3130	7604
1	3130	7605
1	3130	7606
1	3130	7607
1	3130	7608
1	3130	7609
1	3130	7610
1	3130	7611
1	3064	7612
1	2953	7613
1	2851	7614
1	2770	7615
1	2718	7616
1	2706	7617
1	2723	7618
1	2761	7619
1	2823	7620
1	2912	7621
1	3018	7622
1	3130	7623
1	3130	7624
1	3130	7625
1	3130	7626
1	3130	7627
1	3130	7628
1	3130	7629
1	3130	7630
1	3104	7631
1	3000	7632
1	2885	7633
1	2778	7634
1	2696	7635
1	2640	7636
1	2620	7637
1	2628	7638
1	2662	7639
1	2727	7640
1	2809	7641
1	2901	7642
1	3004	7643
1	3107	7644
1	3130	7645
1	3130	7646
1	3130	7647
1	3130	7648
1	3130	7649
1	3100	7650
1	2992	7651
1	2885	7652
1	2786	7653
1	2699	7654
1	2633	7655
1	2595	7656
1	2593	7657
1	2623	7658
1	2679	7659
1	2758	7660
1	2870	7661
1	2952	7662
1	3053	7663
1	3130	7664
1	3130	7665
1	3130	7666
1	3130	7667
1	3130	7668
1	3130	7669
1	3020	7670
1	2896	7671
1	2777	7672
1	2665	7673
1	2574	7674
1	2509	7675
1	2451	7676
1	2438	7677
1	2454	7678
1	2496	7679
1	2539	7700
1	2619	7701
1	2703	7702
1	2799	7703
1	2886	7704
1	2969	7705
1	3041	7706
1	3050	7707
1	3037	7708
1	2975	7709
1	2882	7710
1	2765	7711
1	2657	7712
1	2540	7713
1	2433	7714
1	2335	7715
1	2273	7716
1	2251	7717
1	2264	7718
1	2314	7719
1	2558	7680
1	2647	7681
1	2736	7682
1	2833	7683
1	2917	7684
1	2992	7685
1	3050	7686
1	3080	7687
1	3073	7688
1	3031	7689
1	2954	7690
1	2841	7691
1	2760	7692
1	2664	7693
1	2577	7694
1	2509	7695
1	2469	7696
1	2445	7697
1	2454	7698
1	2491	7699
1	2393	7720
1	2502	7721
1	2581	7722
1	2688	7723
1	2788	7724
1	2875	7725
1	2933	7726
1	2952	7727
1	2932	7728
1	2869	7729
1	2781	7730
1	2679	7731
1	2566	7732
1	2438	7733
1	2341	7734
1	2251	7735
1	2186	7736
1	2170	7737
1	2186	7738
1	2237	7739
1	2314	7740
1	2415	7741
1	2513	7742
1	2609	7743
1	2707	7744
1	2795	7745
1	2850	7746
1	2867	7747
1	2853	7748
1	2809	7749
1	2742	7750
1	2623	7751
1	2537	7752
1	2422	7753
1	2296	7754
1	2188	7755
1	2126	7756
1	2101	7757
1	2109	7758
1	2159	7759
1	2237	7760
1	2332	7761
1	2432	7762
1	2535	7763
1	2632	7764
1	2714	7765
1	2775	7766
1	2783	7767
1	2765	7768
1	2709	7769
1	2623	7770
1	2520	7771
1	2411	7772
1	2285	7773
1	2166	7774
1	2079	7775
1	2023	7776
1	2000	7777
1	2016	7778
1	2066	7779
1	2143	7780
1	2251	7781
1	2341	7782
1	2449	7783
1	2539	7784
1	2621	7785
1	2678	7786
1	2700	7787
1	2687	7788
1	2642	7789
1	2560	7790
1	2471	7791
1	2368	7792
1	2249	7793
1	2134	7794
1	2034	7795
1	1958	7796
1	1917	7797
1	1913	7798
1	1945	7799
1	2006	7800
1	2102	7801
1	2186	7802
1	2283	7803
1	2372	7804
1	2449	7805
1	2499	7806
1	2515	7807
1	2508	7808
1	2467	7809
1	2387	7810
1	2269	7811
1	2181	7812
1	2078	7813
1	1982	7814
1	1908	7815
1	1865	7816
1	1848	7817
1	1867	7818
1	1918	7819
1	2000	7820
1	2101	7821
1	2199	7822
1	2301	7823
1	2388	7824
1	2458	7825
1	2488	7826
1	2488	7827
1	2454	7828
1	2391	7829
1	2305	7830
1	2212	7831
1	2114	7832
1	2000	7833
1	1923	7834
1	1856	7835
1	1801	7836
1	1791	7837
1	1816	7838
1	1860	7839
1	1935	7840
1	2029	7841
1	2131	7842
1	2241	7843
1	2339	7844
1	2412	7845
1	2449	7846
1	2448	7847
1	2412	7848
1	2333	7849
1	2231	7850
1	2109	7851
1	1999	7852
1	1888	7853
1	1783	7854
1	1702	7855
1	1646	7856
1	1641	7857
1	1661	7858
1	1712	7859
1	1790	7860
1	1895	7861
1	1982	7862
1	2073	7863
1	2155	7864
1	2222	7865
1	2274	7866
1	2289	7867
1	2281	7868
1	2237	7869
1	2165	7870
1	2054	7871
1	1974	7872
1	1869	7873
1	1764	7874
1	1683	7875
1	1629	7876
1	1606	7877
1	1620	7878
1	1669	7879
1	1643	7900
1	1764	7901
1	1866	7902
1	1977	7903
1	2079	7904
1	2161	7905
1	2222	7906
1	2243	7907
1	2215	7908
1	2157	7909
1	2063	7910
1	1948	7911
1	1819	7912
1	1690	7913
1	1574	7914
1	1478	7915
1	1403	7916
1	1375	7917
1	1382	7918
1	1430	7919
1	1751	7880
1	1849	7881
1	1946	7882
1	2038	7883
1	2118	7884
1	2178	7885
1	2201	7886
1	2194	7887
1	2159	7888
1	2097	7889
1	2009	7890
1	1901	7891
1	1796	7892
1	1683	7893
1	1607	7894
1	1535	7895
1	1492	7896
1	1480	7897
1	1498	7898
1	1554	7899
1	1508	7920
1	1618	7921
1	1717	7922
1	1829	7923
1	1923	7924
1	1998	7925
1	2039	7926
1	2050	7927
1	2026	7928
1	1973	7929
1	1895	7930
1	1764	7931
1	1677	7932
1	1555	7933
1	1450	7934
1	1357	7935
1	1293	7936
1	1278	7937
1	1290	7938
1	1338	7939
1	1425	7940
1	1518	7941
1	1618	7942
1	1719	7943
1	1818	7944
1	1896	7945
1	1949	7946
1	1962	7947
1	1947	7948
1	1895	7949
1	1823	7950
1	1724	7951
1	1619	7952
1	1512	7953
1	1423	7954
1	1342	7955
1	1293	7956
1	1275	7957
1	1293	7958
1	1340	7959
1	1417	7960
1	1525	7961
1	1602	7962
1	1700	7963
1	1787	7964
1	1860	7965
1	1914	7966
1	1926	7967
1	1907	7968
1	1855	7969
1	1775	7970
1	1678	7971
1	1567	7972
1	1450	7973
1	1346	7974
1	1269	7975
1	1206	7976
1	1188	7977
1	1200	7978
1	1242	7979
1	1233	8000
1	1317	8000
1	1415	8002
1	1520	8003
1	1613	8004
1	1688	8005
1	1736	8006
1	1742	8007
1	1738	8008
1	1701	8009
1	1635	8010
1	1543	8011
1	1445	8012
1	1327	8013
1	1222	8013
1	1139	8015
1	1085	8016
1	1071	8016
1	1085	8018
1	1136	8019
1	1319	7980
1	1428	7981
1	1530	7982
1	1633	7983
1	1721	7984
1	1793	7985
1	1838	7986
1	1841	7987
1	1814	7988
1	1755	7989
1	1674	7990
1	1539	7991
1	1449	7992
1	1335	7993
1	1241	7994
1	1166	7995
1	1122	7996
1	1116	7997
1	1131	7998
1	1167	7999
1	1112	8040
1	1193	8041
1	1291	8042
1	1394	8043
1	1490	8044
1	1581	8045
1	1638	8045
1	1660	8047
1	1649	8048
1	1606	8048
1	1528	8050
1	1395	8051
1	1305	8052
1	1188	8053
1	1085	8054
1	1010	8055
1	961	8056
1	955	8057
1	980	8058
1	1027	8059
1	1215	8020
1	1321	8021
1	1404	8022
1	1508	8023
1	1607	8024
1	1688	8025
1	1743	8026
1	1764	8027
1	1746	8028
1	1697	8029
1	1616	8029
1	1520	8031
1	1407	8032
1	1276	8032
1	1190	8034
1	1109	8035
1	1049	8036
1	1022	8037
1	1026	8038
1	1056	8039
1	1099	8060
1	1196	8061
1	1295	8061
1	1403	8063
1	1490	8064
1	1557	8064
1	1593	8066
1	1581	8067
1	1537	8068
1	1459	8069
1	1353	8070
1	1239	8071
1	1124	8072
1	1002	8073
1	885	8074
1	799	8074
1	752	8076
1	752	8077
1	793	8077
1	860	8079
1	953	8080
1	1083	8080
1	1180	8082
1	1301	8083
1	1413	8084
1	1499	8085
1	1548	8086
1	1565	8087
1	1547	8088
1	1494	8089
1	1415	8090
1	1306	8090
1	1188	8092
1	1067	8093
1	944	8093
1	850	8095
1	782	8096
1	762	8096
1	773	8098
1	824	8099
1	906	8100
1	1016	8101
1	1128	8102
1	1241	8103
1	1338	8104
1	1413	8105
1	1458	8106
1	1465	8106
1	1437	8108
1	1373	8109
1	1288	8109
1	1159	8111
1	1058	8112
1	935	8113
1	824	8114
1	742	8115
1	691	8116
1	676	8117
1	690	8118
1	729	8119
1	796	8120
1	891	8121
1	1006	8122
1	1121	8122
1	1224	8124
1	1314	8125
1	1393	8125
1	1428	8127
1	1445	8128
1	1419	8129
1	1345	8130
1	1248	8131
1	1136	8132
1	1001	8133
1	901	8134
1	811	8135
1	747	8136
1	717	8137
1	717	8138
1	754	8138
1	823	8140
1	918	8141
1	1027	8141
1	1134	8143
1	1233	8144
1	1310	8145
1	1363	8146
1	1383	8147
1	1371	8148
1	1328	8149
1	1259	8150
1	1168	8151
1	1073	8152
1	973	8153
1	883	8154
1	833	8154
1	818	8156
1	836	8157
1	892	8157
1	990	8159
1	1110	8160
1	1238	8161
1	1366	8162
1	1489	8163
1	1602	8164
1	1697	8165
1	1764	8166
1	1791	8167
1	1791	8168
1	1759	8169
1	1703	8170
1	1633	8170
1	1544	8172
1	1459	8173
1	1373	8173
1	1308	8175
1	1261	8176
1	1251	8177
1	1276	8178
1	1341	8179
1	1442	8180
1	1554	8181
1	1661	8182
1	1755	8183
1	1829	8184
1	1865	8185
1	1867	8186
1	1814	8186
1	1726	8188
1	1607	8189
1	1455	8189
1	1289	8191
1	1124	8192
1	954	8193
1	814	8194
1	715	8195
1	653	8196
1	639	8197
1	653	8198
1	697	8199
1	769	8200
1	860	8201
1	954	8202
1	1066	8203
1	1162	8204
1	1241	8205
1	1293	8206
1	1315	8207
1	1293	8208
1	1236	8209
1	1148	8210
1	1045	8211
1	931	8212
1	822	8213
1	724	8214
1	652	8215
1	612	8216
1	602	8217
1	626	8218
1	685	8219
1	769	8220
1	874	8221
1	994	8222
1	1103	8223
1	1197	8224
1	1267	8225
1	1310	8226
1	1319	8227
1	1297	8228
1	1245	8229
1	1162	8230
1	1053	8231
1	925	8232
1	796	8233
1	692	8234
1	617	8235
1	577	8236
1	577	8237
1	611	8238
1	666	8239
1	757	8240
1	867	8241
1	988	8242
1	1110	8243
1	1219	8244
1	1302	8245
1	1351	8246
1	1368	8247
1	1349	8248
1	1299	8249
1	1218	8250
1	1111	8251
1	991	8252
1	858	8253
1	743	8254
1	662	8255
1	604	8256
1	582	8257
1	593	8258
1	636	8259
1	708	8260
1	804	8261
1	905	8262
1	1017	8263
1	1112	8264
1	1193	8265
1	1254	8266
1	1289	8267
1	1288	8268
1	1246	8269
1	1170	8270
1	1067	8271
1	950	8272
1	830	8273
1	732	8274
1	656	8275
1	611	8276
1	597	8277
1	616	8278
1	675	8279
1	830	8300
1	927	8301
1	1033	8302
1	1143	8303
1	1241	8304
1	1317	8305
1	1360	8306
1	1366	8307
1	1343	8308
1	1285	8309
1	1197	8310
1	1088	8311
1	981	8312
1	873	8313
1	787	8314
1	728	8315
1	697	8316
1	698	8317
1	722	8318
1	778	8319
1	759	8280
1	865	8281
1	985	8282
1	1102	8283
1	1211	8284
1	1292	8285
1	1340	8286
1	1350	8287
1	1332	8288
1	1274	8289
1	1188	8290
1	1084	8291
1	979	8292
1	874	8293
1	788	8294
1	727	8295
1	693	8296
1	690	8297
1	705	8298
1	754	8299
1	867	8320
1	981	8321
1	1089	8322
1	1200	8323
1	1292	8324
1	1363	8325
1	1412	8326
1	1427	8327
1	1399	8328
1	1332	8329
1	1243	8330
1	1139	8331
1	1022	8332
1	888	8333
1	806	8334
1	725	8335
1	677	8336
1	658	8337
1	666	8338
1	710	8339
1	785	8340
1	883	8341
1	1005	8342
1	1127	8343
1	1241	8344
1	1346	8345
1	1416	8346
1	1446	8347
1	1438	8348
1	1398	8349
1	1322	8350
1	1228	8351
1	1112	8352
1	1001	8353
1	895	8354
1	815	8355
1	767	8356
1	752	8357
1	767	8358
1	816	8359
1	897	8360
1	1001	8361
1	1108	8362
1	1215	8363
1	1308	8364
1	1380	8365
1	1433	8366
1	1431	8367
1	1404	8368
1	1341	8369
1	1264	8370
1	1166	8371
1	1070	8372
1	962	8373
1	873	8374
1	817	8375
1	794	8376
1	805	8377
1	848	8378
1	926	8379
1	1031	8380
1	1148	8381
1	1261	8382
1	1377	8383
1	1488	8384
1	1572	8385
1	1625	8386
1	1644	8387
1	1625	8388
1	1571	8389
1	1488	8390
1	1381	8391
1	1271	8392
1	1165	8393
1	1068	8394
1	986	8395
1	923	8396
1	888	8397
1	888	8398
1	925	8399
1	995	8400
1	1084	8401
1	1188	8402
1	1292	8403
1	1391	8404
1	1467	8405
1	1510	8406
1	1518	8407
1	1492	8408
1	1438	8409
1	1355	8410
1	1255	8411
1	1136	8412
1	1017	8413
1	913	8414
1	844	8415
1	809	8416
1	813	8417
1	847	8418
1	910	8419
1	1007	8420
1	1119	8421
1	1231	8422
1	1340	8423
1	1437	8424
1	1505	8425
1	1545	8426
1	1543	8427
1	1512	8428
1	1448	8429
1	1346	8430
1	1235	8431
1	1116	8432
1	989	8433
1	906	8434
1	839	8435
1	798	8436
1	800	8437
1	836	8438
1	906	8439
1	1011	8440
1	1124	8441
1	1242	8442
1	1358	8443
1	1461	8444
1	1539	8445
1	1587	8446
1	1598	8447
1	1572	8448
1	1508	8449
1	1426	8450
1	1319	8451
1	1206	8452
1	1084	8453
1	977	8454
1	888	8455
1	833	8456
1	806	8457
1	810	8458
1	853	8459
1	925	8460
1	1023	8461
1	1132	8462
1	1243	8463
1	1346	8464
1	1436	8465
1	1486	8466
1	1503	8467
1	1485	8468
1	1425	8469
1	1328	8470
1	1215	8471
1	1092	8472
1	977	8473
1	867	8474
1	785	8475
1	724	8476
1	708	8477
1	727	8478
1	787	8479
1	878	8480
1	990	8481
1	1104	8482
1	1216	8483
1	1319	8484
1	1399	8485
1	1446	8486
1	1449	8487
1	1420	8488
1	1354	8489
1	1269	8490
1	1164	8491
1	1057	8492
1	939	8493
1	843	8494
1	772	8495
1	739	8496
1	737	8497
1	769	8498
1	833	8499
1	927	8500
1	1047	8501
1	1161	8502
1	1279	8503
1	1384	8504
1	1472	8505
1	1517	8506
1	1530	8507
1	1507	8508
1	1448	8509
1	1359	8510
1	1258	8511
1	1147	8512
1	1033	8513
1	927	8514
1	847	8515
1	796	8516
1	772	8517
1	792	8518
1	837	8519
1	914	8520
1	1015	8521
1	1119	8522
1	1225	8523
1	1319	8524
1	1398	8525
1	1449	8526
1	1463	8527
1	1446	8528
1	1394	8529
1	1299	8530
1	1189	8531
1	1072	8532
1	954	8533
1	861	8534
1	791	8535
1	749	8536
1	747	8537
1	783	8538
1	835	8539
1	931	8540
1	1037	8541
1	1144	8542
1	1252	8543
1	1346	8544
1	1423	8545
1	1469	8546
1	1485	8547
1	1476	8548
1	1436	8549
1	1364	8550
1	1278	8551
1	1179	8552
1	1078	8553
1	979	8554
1	900	8555
1	854	8556
1	846	8557
1	871	8558
1	927	8559
1	1020	8560
1	1129	8561
1	1232	8562
1	1333	8563
1	1424	8564
1	1494	8565
1	1535	8566
1	1543	8567
1	1517	8568
1	1461	8569
1	1376	8570
1	1275	8571
1	1168	8572
1	1058	8573
1	963	8574
1	900	8575
1	865	8576
1	864	8577
1	900	8578
1	973	8579
1	1029	8600
1	1143	8601
1	1266	8602
1	1379	8603
1	1476	8604
1	1548	8605
1	1589	8606
1	1588	8607
1	1571	8608
1	1526	8609
1	1448	8610
1	1350	8611
1	1260	8612
1	1154	8613
1	1058	8614
1	981	8615
1	929	8616
1	916	8617
1	937	8618
1	995	8619
1	1062	8580
1	1169	8581
1	1279	8582
1	1398	8583
1	1499	8584
1	1580	8585
1	1626	8586
1	1636	8587
1	1608	8588
1	1545	8589
1	1446	8590
1	1318	8591
1	1178	8592
1	1044	8593
1	931	8594
1	857	8595
1	815	8596
1	821	8597
1	855	8598
1	926	8599
1	1049	8640
1	1160	8641
1	1278	8642
1	1398	8643
1	1502	8644
1	1584	8645
1	1634	8646
1	1644	8647
1	1623	8648
1	1569	8649
1	1487	8650
1	1382	8651
1	1270	8652
1	1161	8653
1	1059	8654
1	988	8655
1	944	8656
1	940	8657
1	960	8658
1	1014	8659
1	1080	8620
1	1188	8621
1	1288	8622
1	1403	8623
1	1503	8624
1	1586	8625
1	1647	8626
1	1674	8627
1	1661	8628
1	1607	8629
1	1524	8630
1	1413	8631
1	1283	8632
1	1134	8633
1	1044	8634
1	954	8635
1	905	8636
1	893	8637
1	913	8638
1	963	8639
1	1093	8660
1	1190	8661
1	1296	8662
1	1413	8663
1	1517	8664
1	1598	8665
1	1652	8666
1	1659	8667
1	1635	8668
1	1576	8669
1	1485	8670
1	1368	8671
1	1250	8672
1	1136	8673
1	1040	8674
1	977	8675
1	941	8676
1	950	8677
1	996	8678
1	1067	8679
1	1161	8680
1	1273	8681
1	1382	8682
1	1494	8683
1	1589	8684
1	1660	8685
1	1701	8686
1	1714	8687
1	1689	8688
1	1634	8689
1	1549	8690
1	1447	8691
1	1332	8692
1	1214	8693
1	1096	8694
1	1007	8695
1	949	8696
1	928	8697
1	953	8698
1	1016	8699
1	1109	8700
1	1226	8701
1	1359	8702
1	1494	8703
1	1606	8704
1	1686	8705
1	1738	8706
1	1751	8707
1	1731	8708
1	1676	8709
1	1594	8710
1	1487	8711
1	1369	8712
1	1252	8713
1	1150	8714
1	1069	8715
1	1017	8716
1	1000	8717
1	1014	8718
1	1062	8719
1	1143	8720
1	1242	8721
1	1351	8722
1	1471	8723
1	1570	8724
1	1647	8725
1	1697	8726
1	1702	8727
1	1678	8728
1	1608	8729
1	1503	8730
1	1377	8731
1	1242	8732
1	1091	8733
1	1006	8734
1	938	8735
1	911	8736
1	927	8737
1	987	8738
1	1071	8739
1	1175	8760
1	1293	8761
1	1424	8762
1	1539	8763
1	1636	8764
1	1712	8765
1	1755	8766
1	1764	8767
1	1740	8768
1	1685	8769
1	1600	8770
1	1501	8771
1	1397	8772
1	1292	8773
1	1202	8774
1	1132	8775
1	1080	8776
1	1062	8777
1	1075	8778
1	1124	8779
1	1170	8740
1	1271	8741
1	1384	8742
1	1503	8743
1	1600	8744
1	1677	8745
1	1723	8746
1	1736	8747
1	1708	8748
1	1637	8749
1	1543	8750
1	1428	8751
1	1302	8752
1	1186	8753
1	1085	8754
1	1016	8755
1	977	8756
1	975	8757
1	1006	8758
1	1075	8759
1	1201	8780
1	1296	8781
1	1402	8782
1	1505	8783
1	1598	8784
1	1675	8785
1	1731	8786
1	1749	8787
1	1739	8788
1	1697	8789
1	1625	8790
1	1532	8791
1	1435	8792
1	1319	8793
1	1215	8794
1	1136	8795
1	1088	8796
1	1069	8797
1	1081	8798
1	1125	8799
1	1197	8800
1	1292	8801
1	1391	8802
1	1502	8803
1	1602	8804
1	1686	8805
1	1742	8806
1	1764	8807
1	1739	8808
1	1684	8809
1	1593	8810
1	1481	8811
1	1363	8812
1	1255	8813
1	1163	8814
1	1099	8815
1	1058	8816
1	1040	8817
1	1060	8818
1	1117	8819
1	1202	8820
1	1299	8821
1	1418	8822
1	1529	8823
1	1620	8824
1	1688	8825
1	1731	8826
1	1741	8827
1	1725	8828
1	1677	8829
1	1606	8830
1	1510	8831
1	1400	8832
1	1283	8833
1	1184	8834
1	1110	8835
1	1067	8836
1	1067	8837
1	1106	8838
1	1171	8839
1	1224	8860
1	1332	8861
1	1440	8862
1	1556	8863
1	1661	8864
1	1739	8865
1	1787	8866
1	1801	8867
1	1775	8868
1	1716	8869
1	1634	8870
1	1533	8871
1	1430	8872
1	1322	8873
1	1228	8874
1	1162	8875
1	1114	8876
1	1095	8877
1	1107	8878
1	1148	8879
1	1268	8840
1	1377	8841
1	1495	8842
1	1602	8843
1	1691	8844
1	1759	8845
1	1801	8846
1	1803	8847
1	1778	8848
1	1712	8849
1	1625	8850
1	1518	8851
1	1398	8852
1	1274	8853
1	1170	8854
1	1091	8855
1	1049	8856
1	1041	8857
1	1068	8858
1	1132	8859
1	1224	8880
1	1314	8881
1	1425	8882
1	1538	8883
1	1644	8884
1	1727	8885
1	1785	8886
1	1817	8887
1	1814	8888
1	1765	8889
1	1686	8890
1	1581	8891
1	1459	8892
1	1332	8893
1	1215	8894
1	1134	8895
1	1083	8896
1	1071	8897
1	1084	8898
1	1130	8899
1	1205	8900
1	1298	8901
1	1412	8902
1	1528	8903
1	1631	8904
1	1711	8905
1	1761	8906
1	1773	8907
1	1764	8908
1	1724	8909
1	1648	8910
1	1556	8911
1	1462	8912
1	1357	8913
1	1267	8914
1	1191	8915
1	1144	8916
1	1132	8917
1	1150	8918
1	1197	8919
1	1179	8940
1	1293	8941
1	1427	8942
1	1554	8943
1	1667	8944
1	1764	8945
1	1823	8946
1	1842	8947
1	1824	8948
1	1767	8949
1	1682	8950
1	1561	8951
1	1433	8952
1	1303	8953
1	1197	8954
1	1122	8955
1	1080	8956
1	1082	8957
1	1110	8958
1	1170	8959
1	1273	8920
1	1366	8921
1	1463	8922
1	1564	8923
1	1660	8924
1	1738	8925
1	1790	8926
1	1814	8927
1	1792	8928
1	1745	8929
1	1665	8930
1	1569	8931
1	1451	8932
1	1293	8933
1	1202	8934
1	1101	8935
1	1032	8936
1	1011	8937
1	1029	8938
1	1089	8939
1	1252	8960
1	1349	8961
1	1456	8962
1	1563	8963
1	1660	8964
1	1738	8965
1	1785	8966
1	1791	8967
1	1764	8968
1	1710	8969
1	1628	8970
1	1529	8971
1	1427	8972
1	1319	8973
1	1224	8974
1	1158	8975
1	1123	8976
1	1123	8977
1	1160	8978
1	1220	8979
1	1311	8980
1	1423	8981
1	1521	8982
1	1618	8983
1	1698	8984
1	1762	8985
1	1800	8986
1	1817	8987
1	1791	8988
1	1737	8989
1	1651	8990
1	1553	8991
1	1447	8992
1	1332	8993
1	1220	8994
1	1136	8995
1	1080	8996
1	1059	8997
1	1074	8998
1	1121	8999
1	1200	9000
1	1301	9001
1	1420	9002
1	1531	9003
1	1636	9004
1	1724	9005
1	1788	9006
1	1817	9007
1	1809	9008
1	1764	9009
1	1695	9010
1	1603	9011
1	1494	9012
1	1379	9013
1	1279	9014
1	1199	9015
1	1142	9016
1	1123	9017
1	1125	9018
1	1160	9019
1	1223	9020
1	1311	9021
1	1412	9022
1	1512	9023
1	1610	9024
1	1693	9025
1	1744	9026
1	1752	9027
1	1737	9028
1	1693	9029
1	1625	9030
1	1548	9031
1	1463	9032
1	1350	9033
1	1292	9034
1	1233	9035
1	1196	9036
1	1194	9037
1	1222	9038
1	1281	9039
1	1366	9040
1	1467	9041
1	1569	9042
1	1669	9043
1	1755	9044
1	1817	9045
1	1849	9046
1	1850	9047
1	1817	9048
1	1749	9049
1	1665	9050
1	1568	9051
1	1461	9052
1	1346	9053
1	1245	9054
1	1168	9055
1	1121	9056
1	1107	9057
1	1124	9058
1	1175	9059
1	1250	9060
1	1338	9061
1	1442	9062
1	1551	9063
1	1659	9064
1	1751	9065
1	1823	9066
1	1856	9067
1	1850	9068
1	1799	9069
1	1722	9070
1	1621	9071
1	1503	9072
1	1377	9073
1	1269	9074
1	1188	9075
1	1136	9076
1	1132	9077
1	1158	9078
1	1215	9079
1	1230	9100
1	1333	9101
1	1443	9102
1	1553	9103
1	1647	9104
1	1723	9105
1	1764	9106
1	1778	9107
1	1751	9108
1	1692	9109
1	1607	9110
1	1494	9111
1	1377	9112
1	1261	9113
1	1162	9114
1	1093	9115
1	1055	9116
1	1047	9117
1	1076	9118
1	1136	9119
1	1307	9080
1	1413	9081
1	1518	9082
1	1626	9083
1	1715	9084
1	1780	9085
1	1815	9086
1	1795	9087
1	1751	9088
1	1681	9089
1	1589	9090
1	1488	9091
1	1384	9092
1	1278	9093
1	1183	9094
1	1116	9095
1	1076	9096
1	1071	9097
1	1089	9098
1	1145	9099
1	1219	9120
1	1317	9121
1	1422	9122
1	1518	9123
1	1607	9124
1	1681	9125
1	1729	9126
1	1743	9127
1	1724	9128
1	1669	9129
1	1589	9130
1	1490	9131
1	1373	9132
1	1260	9133
1	1156	9134
1	1078	9135
1	1031	9136
1	1021	9137
1	1035	9138
1	1080	9139
1	1153	9160
1	1243	9161
1	1348	9162
1	1458	9163
1	1555	9164
1	1634	9165
1	1685	9166
1	1688	9167
1	1670	9168
1	1620	9169
1	1540	9170
1	1445	9171
1	1345	9172
1	1240	9173
1	1157	9174
1	1094	9175
1	1062	9176
1	1068	9177
1	1106	9178
1	1174	9179
1	1260	9160
1	1358	9161
1	1452	9162
1	1553	9163
1	1647	9164
1	1728	9165
1	1775	9166
1	1791	9167
1	1762	9168
1	1690	9169
1	1592	9170
1	1476	9171
1	1351	9172
1	1241	9173
1	1150	9174
1	1084	9175
1	1049	9176
1	1047	9177
1	1087	9178
1	1179	9179
1	1308	9180
1	1463	9181
1	1621	9182
1	1780	9183
1	1926	9184
1	2045	9185
1	2131	9186
1	2174	9187
1	2179	9188
1	2132	9189
1	2047	9190
1	1953	9191
1	1845	9192
1	1730	9193
1	1629	9194
1	1555	9195
1	1516	9196
1	1517	9197
1	1554	9198
1	1628	9199
1	1728	9200
1	1849	9201
1	1967	9202
1	2081	9203
1	2183	9204
1	2257	9205
1	2284	9206
1	2252	9207
1	2179	9208
1	2063	9209
1	1913	9210
1	1736	9211
1	1556	9212
1	1371	9213
1	1206	9214
1	1074	9215
1	983	9216
1	937	9217
1	934	9218
1	980	9219
1	1056	9220
1	1154	9221
1	1259	9222
1	1372	9223
1	1488	9224
1	1581	9225
1	1647	9226
1	1680	9227
1	1672	9228
1	1626	9229
1	1553	9230
1	1455	9231
1	1338	9232
1	1193	9233
1	1116	9234
1	1034	9235
1	988	9236
1	988	9237
1	1019	9238
1	1083	9239
1	1171	9240
1	1279	9241
1	1394	9242
1	1498	9243
1	1593	9244
1	1678	9245
1	1728	9246
1	1742	9247
1	1727	9248
1	1673	9249
1	1589	9250
1	1486	9251
1	1368	9252
1	1251	9253
1	1152	9254
1	1073	9255
1	1029	9256
1	1019	9257
1	1044	9258
1	1104	9259
1	1188	9260
1	1291	9261
1	1396	9262
1	1499	9263
1	1589	9264
1	1661	9265
1	1703	9266
1	1695	9267
1	1654	9268
1	1580	9269
1	1476	9270
1	1358	9271
1	1251	9272
1	1142	9273
1	1054	9274
1	992	9275
1	953	9276
1	954	9277
1	996	9278
1	1062	9279
1	1177	9300
1	1291	9301
1	1409	9302
1	1520	9303
1	1621	9304
1	1699	9305
1	1739	9306
1	1738	9307
1	1708	9308
1	1638	9309
1	1542	9310
1	1425	9311
1	1292	9312
1	1165	9313
1	1058	9314
1	977	9315
1	923	9316
1	918	9317
1	947	9318
1	1018	9319
1	1155	9280
1	1263	9281
1	1373	9282
1	1491	9283
1	1595	9284
1	1679	9285
1	1736	9286
1	1757	9287
1	1733	9288
1	1669	9289
1	1566	9290
1	1469	9291
1	1346	9292
1	1225	9293
1	1125	9294
1	1057	9295
1	1016	9296
1	1005	9297
1	1022	9298
1	1083	9299
1	1121	9320
1	1245	9321
1	1384	9322
1	1526	9323
1	1647	9324
1	1741	9325
1	1811	9326
1	1827	9327
1	1802	9328
1	1738	9329
1	1640	9330
1	1520	9331
1	1381	9332
1	1207	9333
1	1116	9334
1	1024	9335
1	962	9336
1	947	9337
1	977	9338
1	1039	9339
1	1219	9360
1	1319	9361
1	1426	9362
1	1529	9363
1	1611	9364
1	1672	9365
1	1713	9366
1	1730	9367
1	1715	9368
1	1667	9369
1	1586	9370
1	1483	9371
1	1361	9372
1	1246	9373
1	1140	9374
1	1058	9375
1	1009	9376
1	1004	9377
1	1023	9378
1	1080	9379
1	1167	9380
1	1274	9381
1	1384	9382
1	1499	9383
1	1593	9384
1	1665	9385
1	1714	9386
1	1730	9387
1	1724	9388
1	1685	9389
1	1612	9390
1	1528	9391
1	1435	9392
1	1324	9393
1	1235	9394
1	1164	9395
1	1122	9396
1	1111	9397
1	1128	9398
1	1180	9399
1	1137	9340
1	1250	9341
1	1373	9342
1	1503	9343
1	1615	9344
1	1701	9345
1	1752	9346
1	1764	9347
1	1738	9348
1	1677	9349
1	1594	9350
1	1494	9351
1	1384	9352
1	1275	9353
1	1180	9354
1	1115	9355
1	1076	9356
1	1068	9357
1	1085	9358
1	1138	9359
1	1262	9400
1	1348	9401
1	1443	9402
1	1539	9403
1	1631	9404
1	1704	9405
1	1757	9406
1	1786	9407
1	1770	9408
1	1717	9409
1	1632	9410
1	1526	9411
1	1407	9412
1	1279	9413
1	1171	9414
1	1094	9415
1	1058	9416
1	1055	9417
1	1085	9418
1	1152	9419
1	1213	9440
1	1306	9441
1	1409	9442
1	1510	9443
1	1597	9444
1	1661	9445
1	1697	9446
1	1701	9447
1	1686	9448
1	1647	9449
1	1581	9450
1	1497	9451
1	1396	9452
1	1284	9453
1	1187	9454
1	1106	9455
1	1058	9456
1	1050	9457
1	1071	9458
1	1129	9459
1	1242	9420
1	1356	9421
1	1476	9422
1	1589	9423
1	1686	9424
1	1756	9425
1	1796	9426
1	1806	9427
1	1782	9428
1	1728	9429
1	1647	9430
1	1547	9431
1	1431	9432
1	1309	9433
1	1214	9434
1	1135	9435
1	1085	9436
1	1072	9437
1	1089	9438
1	1134	9439
1	1206	9460
1	1289	9461
1	1372	9462
1	1466	9463
1	1542	9464
1	1602	9465
1	1638	9466
1	1647	9467
1	1620	9468
1	1562	9469
1	1476	9470
1	1372	9471
1	1264	9472
1	1157	9473
1	1067	9474
1	1005	9475
1	973	9476
1	954	9477
1	978	9478
1	1033	9479
1	1125	9480
1	1232	9481
1	1348	9482
1	1471	9483
1	1573	9484
1	1649	9485
1	1697	9486
1	1701	9487
1	1665	9488
1	1590	9489
1	1475	9490
1	1360	9491
1	1231	9492
1	1098	9493
1	987	9494
1	900	9495
1	843	9496
1	824	9497
1	839	9498
1	885	9499
1	957	9500
1	1058	9501
1	1174	9502
1	1295	9503
1	1411	9504
1	1501	9505
1	1565	9506
1	1593	9507
1	1592	9508
1	1553	9509
1	1481	9510
1	1382	9511
1	1279	9512
1	1162	9513
1	1057	9514
1	960	9515
1	896	9516
1	862	9517
1	864	9518
1	905	9519
1	1031	9540
1	1135	9541
1	1241	9542
1	1346	9543
1	1446	9544
1	1526	9545
1	1567	9546
1	1572	9547
1	1536	9548
1	1461	9549
1	1354	9550
1	1233	9551
1	1105	9552
1	984	9553
1	875	9554
1	799	9555
1	756	9556
1	755	9557
1	787	9558
1	857	9559
1	978	9520
1	1060	9521
1	1152	9522
1	1253	9523
1	1350	9524
1	1440	9525
1	1493	9526
1	1516	9527
1	1495	9528
1	1438	9529
1	1351	9530
1	1256	9531
1	1150	9532
1	1022	9533
1	956	9534
1	892	9535
1	852	9536
1	848	9537
1	877	9538
1	939	9539
1	954	9560
1	1072	9561
1	1190	9562
1	1305	9563
1	1407	9564
1	1476	9565
1	1523	9566
1	1534	9567
1	1521	9568
1	1463	9569
1	1369	9570
1	1263	9571
1	1153	9572
1	1031	9573
1	914	9574
1	833	9575
1	788	9576
1	791	9577
1	835	9578
1	918	9579
1	1031	9580
1	1152	9581
1	1276	9582
1	1403	9583
1	1520	9584
1	1607	9585
1	1656	9586
1	1660	9587
1	1608	9588
1	1511	9589
1	1383	9590
1	1251	9591
1	1123	9592
1	996	9593
1	887	9594
1	809	9595
1	768	9596
1	765	9597
1	793	9598
1	855	9599
1	944	9600
1	1055	9601
1	1175	9602
1	1295	9603
1	1409	9604
1	1493	9605
1	1546	9606
1	1562	9607
1	1546	9608
1	1490	9609
1	1408	9610
1	1299	9611
1	1186	9612
1	1072	9613
1	977	9614
1	899	9615
1	856	9616
1	859	9617
1	891	9618
1	954	9619
1	1041	9620
1	1136	9621
1	1239	9622
1	1342	9623
1	1440	9624
1	1520	9625
1	1567	9626
1	1568	9627
1	1539	9628
1	1467	9629
1	1359	9630
1	1241	9631
1	1117	9632
1	1000	9633
1	893	9634
1	822	9635
1	787	9636
1	790	9637
1	824	9638
1	896	9639
1	990	9660
1	1082	9661
1	1184	9662
1	1291	9663
1	1393	9664
1	1478	9665
1	1534	9666
1	1555	9667
1	1546	9668
1	1502	9669
1	1423	9670
1	1315	9671
1	1197	9672
1	1080	9673
1	971	9674
1	878	9675
1	822	9676
1	809	9677
1	822	9678
1	874	9679
1	1002	9640
1	1112	9641
1	1241	9642
1	1357	9643
1	1458	9644
1	1528	9645
1	1574	9646
1	1581	9647
1	1556	9648
1	1501	9649
1	1417	9650
1	1314	9651
1	1206	9652
1	1094	9653
1	999	9654
1	921	9655
1	874	9656
1	857	9657
1	873	9658
1	915	9659
1	955	9680
1	1062	9681
1	1177	9682
1	1294	9683
1	1401	9684
1	1479	9685
1	1529	9686
1	1531	9687
1	1517	9688
1	1472	9689
1	1397	9690
1	1293	9691
1	1188	9692
1	1071	9693
1	965	9694
1	893	9695
1	848	9696
1	834	9697
1	853	9698
1	908	9699
1	1002	9700
1	1106	9701
1	1214	9702
1	1323	9703
1	1424	9704
1	1494	9705
1	1532	9706
1	1542	9707
1	1513	9708
1	1450	9709
1	1358	9710
1	1251	9711
1	1139	9712
1	1024	9713
1	923	9714
1	857	9715
1	822	9716
1	808	9717
1	823	9718
1	877	9719
1	971	9720
1	1084	9721
1	1222	9722
1	1353	9723
1	1476	9724
1	1574	9725
1	1639	9726
1	1661	9727
1	1645	9728
1	1580	9729
1	1474	9730
1	1334	9731
1	1183	9732
1	1031	9733
1	900	9734
1	798	9735
1	738	9736
1	722	9737
1	746	9738
1	809	9739
1	914	9740
1	1031	9741
1	1161	9742
1	1292	9743
1	1415	9744
1	1512	9745
1	1574	9746
1	1588	9747
1	1562	9748
1	1503	9749
1	1419	9750
1	1305	9751
1	1179	9752
1	1063	9753
1	976	9754
1	902	9755
1	861	9756
1	848	9757
1	873	9758
1	926	9759
1	1011	9760
1	1114	9761
1	1227	9762
1	1342	9763
1	1450	9764
1	1533	9765
1	1589	9766
1	1607	9767
1	1576	9768
1	1503	9769
1	1407	9770
1	1289	9771
1	1166	9772
1	1052	9773
1	953	9774
1	884	9775
1	849	9776
1	851	9777
1	880	9778
1	945	9779
1	1040	9780
1	1140	9781
1	1249	9782
1	1348	9783
1	1438	9784
1	1499	9785
1	1525	9786
1	1516	9787
1	1479	9788
1	1421	9789
1	1328	9790
1	1232	9791
1	1133	9792
1	1033	9793
1	953	9794
1	905	9795
1	885	9796
1	900	9797
1	932	9798
1	1000	9799
1	1084	9800
1	1180	9801
1	1288	9802
1	1395	9803
1	1476	9804
1	1541	9805
1	1580	9806
1	1575	9807
1	1543	9808
1	1476	9809
1	1376	9810
1	1269	9811
1	1168	9812
1	1062	9813
1	975	9814
1	902	9815
1	867	9816
1	867	9817
1	899	9818
1	960	9819
1	1073	9840
1	1181	9841
1	1292	9842
1	1395	9843
1	1490	9844
1	1566	9845
1	1607	9846
1	1608	9847
1	1581	9848
1	1513	9849
1	1415	9850
1	1294	9851
1	1165	9852
1	1036	9853
1	927	9854
1	846	9855
1	796	9856
1	783	9857
1	801	9858
1	865	9859
1	1057	9820
1	1161	9821
1	1261	9822
1	1369	9823
1	1464	9824
1	1536	9825
1	1575	9826
1	1581	9827
1	1549	9828
1	1488	9829
1	1398	9830
1	1283	9831
1	1157	9832
1	1037	9833
1	940	9834
1	879	9835
1	853	9836
1	869	9837
1	910	9838
1	981	9839
1	1050	9880
1	1136	9881
1	1239	9882
1	1346	9883
1	1440	9884
1	1510	9885
1	1555	9886
1	1577	9887
1	1564	9888
1	1514	9889
1	1433	9890
1	1333	9891
1	1225	9892
1	1115	9893
1	1017	9894
1	939	9895
1	896	9896
1	882	9897
1	903	9898
1	963	9899
1	965	9860
1	1094	9861
1	1228	9862
1	1363	9863
1	1485	9864
1	1580	9865
1	1641	9866
1	1660	9867
1	1647	9868
1	1600	9869
1	1524	9870
1	1425	9871
1	1319	9872
1	1207	9873
1	1105	9874
1	1018	9875
1	954	9876
1	927	9877
1	935	9878
1	981	9879
1	1050	9900
1	1154	9901
1	1268	9902
1	1381	9903
1	1481	9904
1	1556	9905
1	1607	9906
1	1615	9907
1	1590	9908
1	1534	9909
1	1450	9910
1	1343	9911
1	1224	9912
1	1107	9913
1	1004	9914
1	927	9915
1	889	9916
1	889	9917
1	914	9918
1	979	9919
1	1071	9920
1	1184	9921
1	1310	9922
1	1440	9923
1	1549	9924
1	1624	9925
1	1660	9926
1	1654	9927
1	1612	9928
1	1541	9929
1	1445	9930
1	1327	9931
1	1213	9932
1	1098	9933
1	1005	9934
1	942	9935
1	911	9936
1	915	9937
1	955	9938
1	1031	9939
1	1113	9960
1	1215	9961
1	1324	9962
1	1437	9963
1	1529	9964
1	1595	9965
1	1631	9966
1	1631	9967
1	1597	9968
1	1536	9969
1	1448	9970
1	1339	9971
1	1220	9972
1	1111	9973
1	1020	9974
1	952	9975
1	914	9976
1	922	9977
1	956	9978
1	1026	9979
1	1125	9940
1	1230	9941
1	1345	9942
1	1451	9943
1	1544	9944
1	1610	9945
1	1647	9946
1	1646	9947
1	1603	9948
1	1530	9949
1	1442	9950
1	1330	9951
1	1215	9952
1	1103	9953
1	1008	9954
1	938	9955
1	902	9956
1	908	9957
1	948	9958
1	1022	9959
1	1110	9980
1	1212	9981
1	1318	9982
1	1426	9983
1	1519	9984
1	1587	9985
1	1621	9986
1	1609	9987
1	1572	9988
1	1500	9989
1	1400	9990
1	1296	9991
1	1201	9992
1	1103	9993
1	1022	9994
1	959	9995
1	926	9996
1	927	9997
1	960	9998
1	1036	9999
1	1136	10000
1	1242	10001
1	1349	10002
1	1458	10003
1	1555	10004
1	1634	10005
1	1677	10006
1	1687	10007
1	1660	10008
1	1597	10009
1	1508	10010
1	1401	10011
1	1282	10012
1	1163	10013
1	1067	10014
1	996	10015
1	942	10016
1	918	10017
1	934	10018
1	995	10019
1	1084	10020
1	1193	10021
1	1318	10022
1	1438	10023
1	1542	10024
1	1616	10025
1	1660	10026
1	1663	10027
1	1635	10028
1	1577	10029
1	1490	10030
1	1382	10031
1	1265	10032
1	1149	10033
1	1062	10034
1	1001	10035
1	965	10036
1	979	10037
1	1017	10038
1	1076	10039
1	1161	10040
1	1251	10041
1	1348	10042
1	1450	10043
1	1542	10044
1	1613	10045
1	1661	10046
1	1662	10047
1	1634	10048
1	1571	10049
1	1481	10050
1	1371	10051
1	1254	10052
1	1139	10053
1	1049	10054
1	979	10055
1	936	10056
1	938	10057
1	981	10058
1	1058	10059
1	1171	10060
1	1297	10061
1	1430	10062
1	1555	10063
1	1659	10064
1	1732	10065
1	1766	10066
1	1764	10067
1	1716	10068
1	1639	10069
1	1539	10070
1	1423	10071
1	1294	10072
1	1175	10073
1	1072	10074
1	999	10075
1	955	10076
1	961	10077
1	1011	10078
1	1095	10079
1	1199	10080
1	1319	10081
1	1450	10082
1	1566	10083
1	1660	10084
1	1733	10085
1	1768	10086
1	1764	10087
1	1729	10088
1	1660	10089
1	1564	10090
1	1463	10091
1	1346	10092
1	1242	10093
1	1155	10094
1	1095	10095
1	1067	10096
1	1066	10097
1	1086	10098
1	1144	10099
1	1228	10100
1	1327	10101
1	1433	10102
1	1526	10103
1	1607	10104
1	1672	10105
1	1718	10106
1	1724	10107
1	1700	10108
1	1635	10109
1	1547	10110
1	1435	10111
1	1317	10112
1	1190	10113
1	1084	10114
1	1004	10115
1	953	10116
1	941	10117
1	962	10118
1	1019	10119
1	1110	10120
1	1226	10121
1	1345	10122
1	1467	10123
1	1570	10124
