#Date:= 2024-10-01T14:58:49.107103
#Sampling Rate(Hz):= 1000
#Labels:= LOD	ECG	TS
1	1629	20
1	1646	21
1	1660	22
1	1673	23
1	1681	24
1	1692	25
1	1701	26
1	1711	27
1	1716	28
1	1596	29
1	1604	30
1	1610	31
1	1618	32
1	1620	33
1	1611	34
1	1602	35
1	1587	36
1	1571	37
1	1552	38
1	1530	39
1	1513	60
1	1498	61
1	1487	62
1	1476	63
1	1467	64
1	1463	65
1	1463	66
1	1463	67
1	1463	68
1	1465	69
1	1472	70
1	1476	71
1	1488	72
1	1492	73
1	1497	74
1	1504	75
1	1508	76
1	1514	77
1	1520	78
1	1523	79
1	1526	80
1	1533	81
1	1550	82
1	1564	83
1	1584	84
1	1598	85
1	1607	86
1	1620	87
1	1628	88
1	1632	89
1	1633	90
1	1634	91
1	1639	92
1	1643	93
1	1647	94
1	1654	95
1	1657	96
1	1660	97
1	1652	98
1	1644	99
1	1639	80
1	1638	81
1	1634	82
1	1610	83
1	1584	84
1	1560	85
1	1542	86
1	1526	87
1	1507	88
1	1481	89
1	1460	90
1	1448	91
1	1435	92
1	1416	93
1	1405	94
1	1403	95
1	1418	96
1	1440	97
1	1467	98
1	1494	99
1	1520	100
1	1542	101
1	1555	102
1	1564	103
1	1574	104
1	1581	105
1	1593	106
1	1604	107
1	1607	108
1	1608	109
1	1618	110
1	1623	111
1	1634	112
1	1631	113
1	1620	114
1	1607	115
1	1602	116
1	1597	117
1	1593	118
1	1587	119
1	1510	140
1	1521	141
1	1528	142
1	1535	143
1	1541	144
1	1546	145
1	1554	146
1	1553	147
1	1549	148
1	1544	149
1	1540	150
1	1529	151
1	1525	152
1	1520	153
1	1510	154
1	1503	155
1	1507	156
1	1507	157
1	1503	158
1	1494	159
1	1598	120
1	1607	121
1	1621	122
1	1637	123
1	1644	124
1	1642	125
1	1635	126
1	1629	127
1	1613	128
1	1599	129
1	1581	130
1	1567	131
1	1549	132
1	1524	133
1	1503	134
1	1485	135
1	1476	136
1	1476	137
1	1482	138
1	1495	139
1	1487	180
1	1489	181
1	1494	182
1	1503	183
1	1517	184
1	1535	185
1	1555	186
1	1575	187
1	1589	188
1	1602	189
1	1598	190
1	1585	191
1	1566	192
1	1548	193
1	1524	194
1	1500	195
1	1477	196
1	1469	197
1	1476	198
1	1488	199
1	1502	180
1	1516	181
1	1523	182
1	1528	183
1	1529	184
1	1529	185
1	1526	186
1	1518	187
1	1508	188
1	1498	189
1	1487	190
1	1476	191
1	1463	192
1	1451	193
1	1446	194
1	1449	195
1	1463	196
1	1482	197
1	1503	198
1	1523	199
1	1535	200
1	1547	201
1	1554	202
1	1555	203
1	1548	204
1	1542	205
1	1533	206
1	1525	207
1	1511	208
1	1502	209
1	1494	210
1	1499	211
1	1503	212
1	1504	213
1	1503	214
1	1498	215
1	1481	216
1	1467	217
1	1463	218
1	1463	219
1	1476	220
1	1479	221
1	1479	222
1	1466	223
1	1454	224
1	1459	225
1	1466	226
1	1467	227
1	1454	228
1	1443	229
1	1436	230
1	1433	231
1	1437	232
1	1448	233
1	1466	234
1	1499	235
1	1537	236
1	1560	237
1	1581	238
1	1592	239
1	1587	240
1	1574	241
1	1551	242
1	1521	243
1	1502	244
1	1487	245
1	1476	246
1	1469	247
1	1475	248
1	1476	249
1	1477	250
1	1477	251
1	1482	252
1	1493	253
1	1505	254
1	1521	255
1	1543	256
1	1579	257
1	1607	258
1	1634	259
1	1501	280
1	1503	281
1	1508	282
1	1520	283
1	1533	284
1	1548	285
1	1566	286
1	1584	287
1	1587	288
1	1586	289
1	1574	290
1	1566	291
1	1559	292
1	1544	293
1	1521	294
1	1499	295
1	1476	296
1	1463	297
1	1461	298
1	1466	299
1	1653	260
1	1656	261
1	1649	262
1	1645	263
1	1625	264
1	1593	265
1	1555	266
1	1520	267
1	1495	268
1	1479	269
1	1467	270
1	1453	271
1	1450	272
1	1449	273
1	1456	274
1	1466	275
1	1476	276
1	1487	277
1	1490	278
1	1494	279
1	1472	300
1	1477	301
1	1480	302
1	1476	303
1	1478	304
1	1485	305
1	1494	306
1	1503	307
1	1505	308
1	1504	309
1	1502	310
1	1493	311
1	1481	312
1	1465	313
1	1450	314
1	1440	315
1	1437	316
1	1438	317
1	1446	318
1	1451	319
1	1454	320
1	1461	321
1	1468	322
1	1469	323
1	1467	324
1	1474	325
1	1476	326
1	1477	327
1	1480	328
1	1487	329
1	1492	330
1	1504	331
1	1510	332
1	1506	333
1	1502	334
1	1494	335
1	1477	336
1	1469	337
1	1459	338
1	1455	339
1	1454	340
1	1466	341
1	1476	342
1	1488	343
1	1493	344
1	1494	345
1	1494	346
1	1502	347
1	1505	348
1	1517	349
1	1524	350
1	1526	351
1	1526	352
1	1529	353
1	1515	354
1	1493	355
1	1476	356
1	1472	357
1	1472	358
1	1468	359
1	1464	360
1	1464	361
1	1467	362
1	1475	363
1	1495	364
1	1526	365
1	1559	366
1	1607	367
1	1649	368
1	1694	369
1	1736	370
1	1766	371
1	1791	372
1	1815	373
1	1836	374
1	1862	375
1	1895	376
1	1925	377
1	1952	378
1	1988	379
1	2030	380
1	2079	381
1	2131	382
1	2197	383
1	2262	384
1	2314	385
1	2359	386
1	2390	387
1	2407	388
1	2404	389
1	2388	390
1	2354	391
1	2304	392
1	2235	393
1	2156	394
1	2076	395
1	1998	396
1	1920	397
1	1831	398
1	1744	399
1	1672	400
1	1607	401
1	1556	402
1	1524	403
1	1499	404
1	1477	405
1	1452	406
1	1426	407
1	1397	408
1	1372	409
1	1355	410
1	1347	411
1	1357	412
1	1371	413
1	1391	414
1	1407	415
1	1422	416
1	1440	417
1	1458	418
1	1473	419
1	1489	420
1	1504	421
1	1526	422
1	1543	423
1	1562	424
1	1583	425
1	1595	426
1	1603	427
1	1602	428
1	1600	429
1	1593	430
1	1590	431
1	1573	432
1	1544	433
1	1525	434
1	1512	435
1	1503	436
1	1500	437
1	1503	438
1	1518	439
1	1535	440
1	1554	441
1	1569	442
1	1580	443
1	1589	444
1	1597	445
1	1608	446
1	1612	447
1	1607	448
1	1591	449
1	1572	450
1	1557	451
1	1542	452
1	1530	453
1	1528	454
1	1529	455
1	1539	456
1	1553	457
1	1572	458
1	1584	459
1	1590	460
1	1590	461
1	1591	462
1	1598	463
1	1608	464
1	1613	465
1	1619	466
1	1621	467
1	1622	468
1	1628	469
1	1632	470
1	1629	471
1	1631	472
1	1632	473
1	1634	474
1	1633	475
1	1623	476
1	1611	477
1	1613	478
1	1620	479
1	1625	480
1	1629	481
1	1634	482
1	1629	483
1	1632	484
1	1632	485
1	1634	486
1	1643	487
1	1634	488
1	1623	489
1	1608	490
1	1603	491
1	1607	492
1	1610	493
1	1622	494
1	1634	495
1	1638	496
1	1644	497
1	1643	498
1	1647	499
1	1657	500
1	1660	501
1	1668	502
1	1667	503
1	1665	504
1	1662	505
1	1660	506
1	1659	507
1	1659	508
1	1665	509
1	1681	510
1	1686	511
1	1693	512
1	1690	513
1	1699	514
1	1698	515
1	1695	516
1	1686	517
1	1661	518
1	1642	519
1	1619	520
1	1596	521
1	1571	522
1	1555	523
1	1553	524
1	1562	525
1	1581	526
1	1605	527
1	1612	528
1	1628	529
1	1636	530
1	1656	531
1	1673	532
1	1698	533
1	1706	534
1	1717	535
1	1715	536
1	1706	537
1	1701	538
1	1688	539
1	1673	540
1	1656	541
1	1634	542
1	1615	543
1	1607	544
1	1611	545
1	1616	546
1	1620	547
1	1638	548
1	1661	549
1	1687	550
1	1711	551
1	1731	552
1	1743	553
1	1749	554
1	1749	555
1	1740	556
1	1733	557
1	1712	558
1	1696	559
1	1694	560
1	1703	561
1	1712	562
1	1728	563
1	1731	564
1	1736	565
1	1738	566
1	1743	567
1	1747	568
1	1749	569
1	1750	570
1	1747	571
1	1740	572
1	1728	573
1	1721	574
1	1714	575
1	1705	576
1	1697	577
1	1686	578
1	1672	579
1	1661	580
1	1661	581
1	1674	582
1	1694	583
1	1716	584
1	1744	585
1	1772	586
1	1799	587
1	1817	588
1	1826	589
1	1824	590
1	1817	591
1	1811	592
1	1791	593
1	1765	594
1	1746	595
1	1725	596
1	1707	597
1	1691	598
1	1682	599
1	1672	600
1	1661	601
1	1651	602
1	1636	603
1	1631	604
1	1631	605
1	1623	606
1	1613	607
1	1596	608
1	1585	609
1	1582	610
1	1589	611
1	1595	612
1	1607	613
1	1626	614
1	1647	615
1	1673	616
1	1697	617
1	1710	618
1	1726	619
1	1742	620
1	1765	621
1	1802	622
1	1831	623
1	1846	624
1	1852	625
1	1846	626
1	1831	627
1	1808	628
1	1779	629
1	1749	630
1	1714	631
1	1687	632
1	1661	633
1	1635	634
1	1608	635
1	1582	636
1	1560	637
1	1543	638
1	1530	639
1	1528	640
1	1542	641
1	1564	642
1	1585	643
1	1602	644
1	1625	645
1	1647	646
1	1671	647
1	1686	648
1	1698	649
1	1706	650
1	1711	651
1	1701	652
1	1692	653
1	1683	654
1	1678	655
1	1673	656
1	1665	657
1	1650	658
1	1638	659
1	1636	660
1	1642	661
1	1647	662
1	1647	663
1	1647	664
1	1647	665
1	1643	666
1	1642	667
1	1633	668
1	1619	669
1	1607	670
1	1597	671
1	1590	672
1	1582	673
1	1581	674
1	1586	675
1	1594	676
1	1603	677
1	1604	678
1	1612	679
1	1631	680
1	1638	681
1	1645	682
1	1648	683
1	1656	684
1	1661	685
1	1671	686
1	1678	687
1	1679	688
1	1677	689
1	1672	690
1	1662	691
1	1654	692
1	1634	693
1	1625	694
1	1618	695
1	1617	696
1	1626	697
1	1625	698
1	1621	699
1	1620	700
1	1620	701
1	1624	702
1	1634	703
1	1646	704
1	1660	705
1	1678	706
1	1686	707
1	1684	708
1	1675	709
1	1660	710
1	1638	711
1	1625	712
1	1600	713
1	1574	714
1	1550	715
1	1535	716
1	1530	717
1	1531	718
1	1541	719
1	1661	760
1	1658	761
1	1663	762
1	1661	763
1	1653	764
1	1643	765
1	1642	766
1	1649	767
1	1660	768
1	1670	769
1	1674	770
1	1674	771
1	1662	772
1	1646	773
1	1639	774
1	1639	775
1	1648	776
1	1661	777
1	1679	778
1	1698	779
1	1712	760
1	1719	761
1	1712	762
1	1705	763
1	1697	764
1	1686	765
1	1683	766
1	1686	767
1	1691	768
1	1707	769
1	1725	770
1	1747	771
1	1761	772
1	1769	773
1	1767	774
1	1765	775
1	1764	776
1	1762	777
1	1765	778
1	1775	779
1	1782	780
1	1786	781
1	1791	782
1	1791	783
1	1790	784
1	1776	785
1	1757	786
1	1747	787
1	1732	788
1	1717	789
1	1709	790
1	1700	791
1	1695	792
1	1690	793
1	1688	794
1	1689	795
1	1688	796
1	1686	797
1	1679	798
1	1682	799
1	1692	800
1	1710	801
1	1730	802
1	1748	803
1	1765	804
1	1791	805
1	1821	806
1	1843	807
1	1854	808
1	1855	809
1	1845	810
1	1836	811
1	1818	812
1	1793	813
1	1782	814
1	1768	815
1	1758	816
1	1749	817
1	1733	818
1	1716	819
1	1557	720
1	1572	721
1	1599	722
1	1634	723
1	1664	724
1	1697	725
1	1726	726
1	1752	727
1	1762	728
1	1760	729
1	1751	730
1	1748	731
1	1741	732
1	1734	733
1	1728	734
1	1726	735
1	1721	736
1	1707	737
1	1688	738
1	1670	739
1	1712	820
1	1709	821
1	1709	822
1	1708	823
1	1711	824
1	1712	825
1	1710	826
1	1708	827
1	1710	828
1	1723	829
1	1742	830
1	1772	831
1	1796	832
1	1817	833
1	1826	834
1	1836	835
1	1838	836
1	1831	837
1	1827	838
1	1823	839
1	1817	840
1	1813	841
1	1800	842
1	1791	843
1	1787	844
1	1781	845
1	1767	846
1	1754	847
1	1742	848
1	1724	849
1	1709	850
1	1701	851
1	1692	852
1	1681	853
1	1670	854
1	1671	855
1	1686	856
1	1713	857
1	1742	858
1	1769	859
1	1819	880
1	1837	881
1	1847	882
1	1856	883
1	1855	884
1	1849	885
1	1843	886
1	1840	887
1	1829	888
1	1825	889
1	1818	890
1	1800	891
1	1786	892
1	1759	893
1	1738	894
1	1717	895
1	1707	896
1	1701	897
1	1700	898
1	1701	899
1	1699	900
1	1697	901
1	1698	902
1	1698	903
1	1710	904
1	1721	905
1	1733	906
1	1761	907
1	1783	908
1	1815	909
1	1834	910
1	1847	911
1	1856	912
1	1856	913
1	1850	914
1	1840	915
1	1827	916
1	1812	917
1	1783	918
1	1764	919
1	1791	860
1	1816	861
1	1832	862
1	1850	863
1	1855	864
1	1851	865
1	1838	866
1	1821	867
1	1802	868
1	1789	869
1	1773	870
1	1764	871
1	1756	872
1	1744	873
1	1739	874
1	1738	875
1	1742	876
1	1759	877
1	1777	878
1	1796	879
1	1752	920
1	1744	921
1	1744	922
1	1738	923
1	1738	924
1	1741	925
1	1751	926
1	1760	927
1	1767	928
1	1770	929
1	1767	930
1	1764	931
1	1761	932
1	1755	933
1	1751	934
1	1755	935
1	1764	936
1	1765	937
1	1764	938
1	1764	939
1	1757	940
1	1753	941
1	1747	942
1	1738	943
1	1729	944
1	1726	945
1	1738	946
1	1757	947
1	1777	948
1	1800	949
1	1824	950
1	1837	951
1	1843	952
1	1855	953
1	1855	954
1	1856	955
1	1859	956
1	1865	957
1	1870	958
1	1881	959
1	1890	960
1	1900	961
1	1910	962
1	1908	963
1	1903	964
1	1893	965
1	1874	966
1	1870	967
1	1857	968
1	1843	969
1	1835	970
1	1830	971
1	1823	972
1	1815	973
1	1796	974
1	1791	975
1	1791	976
1	1791	977
1	1785	978
1	1783	979
1	1791	1000
1	1782	1001
1	1769	1002
1	1760	1003
1	1753	1004
1	1751	1005
1	1753	1006
1	1752	1007
1	1746	1008
1	1742	1009
1	1742	1010
1	1738	1011
1	1740	1012
1	1742	1013
1	1743	1014
1	1739	1015
1	1731	1016
1	1720	1017
1	1712	1018
1	1706	1019
1	1782	980
1	1778	981
1	1779	982
1	1773	983
1	1765	984
1	1755	985
1	1749	986
1	1747	987
1	1749	988
1	1754	989
1	1767	990
1	1784	991
1	1801	992
1	1817	993
1	1836	994
1	1844	995
1	1842	996
1	1839	997
1	1823	998
1	1809	999
1	1706	1020
1	1710	1021
1	1715	1022
1	1725	1023
1	1746	1024
1	1773	1025
1	1789	1026
1	1799	1027
1	1793	1028
1	1786	1029
1	1768	1030
1	1765	1031
1	1760	1032
1	1750	1033
1	1746	1034
1	1741	1035
1	1747	1036
1	1751	1037
1	1751	1038
1	1751	1039
1	1754	1040
1	1754	1041
1	1760	1042
1	1752	1043
1	1739	1044
1	1728	1045
1	1723	1046
1	1717	1047
1	1713	1048
1	1710	1049
1	1712	1050
1	1711	1051
1	1708	1052
1	1709	1053
1	1710	1054
1	1715	1055
1	1723	1056
1	1742	1057
1	1764	1058
1	1791	1059
1	1825	1060
1	1859	1061
1	1903	1062
1	1948	1063
1	1992	1064
1	2039	1065
1	2083	1066
1	2127	1067
1	2149	1068
1	2171	1069
1	2188	1070
1	2200	1071
1	2217	1072
1	2240	1073
1	2262	1074
1	2287	1075
1	2314	1076
1	2348	1077
1	2385	1078
1	2420	1079
1	2457	1080
1	2480	1081
1	2491	1082
1	2474	1083
1	2453	1084
1	2420	1085
1	2374	1086
1	2332	1087
1	2273	1088
1	2198	1089
1	2129	1090
1	2066	1091
1	2006	1092
1	1950	1093
1	1904	1094
1	1856	1095
1	1816	1096
1	1764	1097
1	1714	1098
1	1665	1099
1	1618	1100
1	1573	1101
1	1549	1102
1	1529	1103
1	1517	1104
1	1523	1105
1	1533	1106
1	1544	1107
1	1555	1108
1	1566	1109
1	1584	1110
1	1606	1111
1	1618	1112
1	1620	1113
1	1621	1114
1	1625	1115
1	1622	1116
1	1636	1117
1	1644	1118
1	1658	1119
1	1679	1120
1	1707	1121
1	1735	1122
1	1760	1123
1	1781	1124
1	1796	1125
1	1812	1126
1	1816	1127
1	1813	1128
1	1803	1129
1	1792	1130
1	1781	1131
1	1761	1132
1	1740	1133
1	1712	1134
1	1686	1135
1	1674	1136
1	1657	1137
1	1651	1138
1	1649	1139
1	1658	1140
1	1670	1141
1	1688	1142
1	1710	1143
1	1721	1144
1	1725	1145
1	1715	1146
1	1715	1147
1	1709	1148
1	1704	1149
1	1704	1150
1	1712	1151
1	1726	1152
1	1743	1153
1	1752	1154
1	1762	1155
1	1764	1156
1	1766	1157
1	1763	1158
1	1758	1159
1	1712	1180
1	1721	1181
1	1737	1182
1	1751	1183
1	1764	1184
1	1778	1185
1	1791	1186
1	1798	1187
1	1791	1188
1	1788	1189
1	1778	1190
1	1764	1191
1	1767	1192
1	1762	1193
1	1748	1194
1	1738	1195
1	1736	1196
1	1726	1197
1	1710	1198
1	1697	1199
1	1751	1160
1	1743	1161
1	1741	1162
1	1746	1163
1	1743	1164
1	1738	1165
1	1738	1166
1	1746	1167
1	1748	1168
1	1746	1169
1	1738	1170
1	1725	1171
1	1712	1172
1	1698	1173
1	1690	1174
1	1688	1175
1	1686	1176
1	1698	1177
1	1703	1178
1	1708	1179
1	1686	1200
1	1687	1201
1	1695	1202
1	1692	1203
1	1688	1204
1	1686	1205
1	1686	1206
1	1699	1207
1	1697	1208
1	1697	1209
1	1705	1210
1	1715	1211
1	1734	1212
1	1751	1213
1	1767	1214
1	1783	1215
1	1792	1216
1	1801	1217
1	1803	1218
1	1808	1219
1	1809	1220
1	1801	1221
1	1812	1222
1	1808	1223
1	1812	1224
1	1817	1225
1	1817	1226
1	1814	1227
1	1809	1228
1	1796	1229
1	1781	1230
1	1769	1231
1	1760	1232
1	1757	1233
1	1756	1234
1	1761	1235
1	1766	1236
1	1782	1237
1	1802	1238
1	1827	1239
1	1847	1240
1	1875	1241
1	1890	1242
1	1888	1243
1	1881	1244
1	1869	1245
1	1852	1246
1	1833	1247
1	1802	1248
1	1775	1249
1	1752	1250
1	1733	1251
1	1720	1252
1	1713	1253
1	1706	1254
1	1701	1255
1	1694	1256
1	1691	1257
1	1695	1258
1	1703	1259
1	1762	1280
1	1749	1281
1	1746	1282
1	1734	1283
1	1721	1284
1	1702	1285
1	1686	1286
1	1664	1287
1	1656	1288
1	1656	1289
1	1665	1290
1	1684	1291
1	1705	1292
1	1718	1293
1	1741	1294
1	1765	1295
1	1778	1296
1	1791	1297
1	1791	1298
1	1790	1299
1	1712	1260
1	1729	1261
1	1748	1262
1	1760	1263
1	1772	1264
1	1787	1265
1	1806	1266
1	1836	1267
1	1856	1268
1	1877	1269
1	1895	1270
1	1904	1271
1	1903	1272
1	1896	1273
1	1888	1274
1	1873	1275
1	1854	1276
1	1827	1277
1	1791	1278
1	1773	1279
1	1780	1300
1	1772	1301
1	1769	1302
1	1765	1303
1	1766	1304
1	1775	1305
1	1785	1306
1	1798	1307
1	1811	1308
1	1819	1309
1	1828	1310
1	1838	1311
1	1846	1312
1	1847	1313
1	1841	1314
1	1827	1315
1	1817	1316
1	1813	1317
1	1803	1318
1	1791	1319
1	1782	1320
1	1773	1321
1	1764	1322
1	1753	1323
1	1750	1324
1	1746	1325
1	1730	1326
1	1712	1327
1	1690	1328
1	1665	1329
1	1643	1330
1	1631	1331
1	1616	1332
1	1602	1333
1	1598	1334
1	1594	1335
1	1598	1336
1	1607	1337
1	1618	1338
1	1629	1339
1	1638	1360
1	1621	1361
1	1609	1362
1	1597	1363
1	1589	1364
1	1587	1365
1	1589	1366
1	1596	1367
1	1602	1368
1	1620	1369
1	1644	1370
1	1668	1371
1	1690	1372
1	1703	1373
1	1707	1374
1	1703	1375
1	1694	1376
1	1674	1377
1	1647	1378
1	1621	1379
1	1644	1340
1	1665	1341
1	1694	1342
1	1712	1343
1	1729	1344
1	1737	1345
1	1741	1346
1	1738	1347
1	1736	1348
1	1738	1349
1	1739	1350
1	1742	1351
1	1742	1352
1	1737	1353
1	1729	1354
1	1723	1355
1	1706	1356
1	1686	1357
1	1677	1358
1	1659	1359
1	1598	1380
1	1589	1381
1	1584	1382
1	1581	1383
1	1592	1384
1	1610	1385
1	1634	1386
1	1654	1387
1	1665	1388
1	1683	1389
1	1688	1390
1	1694	1391
1	1696	1392
1	1695	1393
1	1692	1394
1	1687	1395
1	1679	1396
1	1667	1397
1	1646	1398
1	1631	1399
1	1620	1400
1	1615	1401
1	1618	1402
1	1616	1403
1	1620	1404
1	1627	1405
1	1631	1406
1	1629	1407
1	1624	1408
1	1621	1409
1	1622	1410
1	1625	1411
1	1634	1412
1	1634	1413
1	1641	1414
1	1635	1415
1	1625	1416
1	1613	1417
1	1603	1418
1	1596	1419
1	1597	1420
1	1605	1421
1	1611	1422
1	1634	1423
1	1662	1424
1	1695	1425
1	1715	1426
1	1734	1427
1	1738	1428
1	1742	1429
1	1739	1430
1	1730	1431
1	1713	1432
1	1702	1433
1	1686	1434
1	1670	1435
1	1646	1436
1	1635	1437
1	1613	1438
1	1597	1439
1	1585	1440
1	1579	1441
1	1566	1442
1	1560	1443
1	1564	1444
1	1579	1445
1	1598	1446
1	1620	1447
1	1641	1448
1	1659	1449
1	1672	1450
1	1688	1451
1	1698	1452
1	1699	1453
1	1697	1454
1	1688	1455
1	1678	1456
1	1665	1457
1	1648	1458
1	1636	1459
1	1629	1460
1	1629	1461
1	1634	1462
1	1643	1463
1	1647	1464
1	1647	1465
1	1647	1466
1	1646	1467
1	1647	1468
1	1649	1469
1	1649	1470
1	1638	1471
1	1631	1472
1	1615	1473
1	1607	1474
1	1600	1475
1	1596	1476
1	1599	1477
1	1602	1478
1	1607	1479
1	1613	1480
1	1618	1481
1	1619	1482
1	1616	1483
1	1611	1484
1	1611	1485
1	1618	1486
1	1634	1487
1	1643	1488
1	1652	1489
1	1661	1490
1	1667	1491
1	1674	1492
1	1671	1493
1	1671	1494
1	1670	1495
1	1667	1496
1	1667	1497
1	1668	1498
1	1669	1499
1	1673	1500
1	1675	1501
1	1677	1502
1	1669	1503
1	1665	1504
1	1660	1505
1	1657	1506
1	1656	1507
1	1649	1508
1	1642	1509
1	1632	1510
1	1615	1511
1	1597	1512
1	1585	1513
1	1583	1514
1	1593	1515
1	1607	1516
1	1628	1517
1	1635	1518
1	1647	1519
1	1659	1520
1	1661	1521
1	1665	1522
1	1662	1523
1	1661	1524
1	1660	1525
1	1658	1526
1	1647	1527
1	1634	1528
1	1619	1529
1	1595	1530
1	1577	1531
1	1562	1532
1	1551	1533
1	1542	1534
1	1539	1535
1	1548	1536
1	1560	1537
1	1578	1538
1	1589	1539
1	1604	1540
1	1619	1541
1	1641	1542
1	1661	1543
1	1682	1544
1	1700	1545
1	1714	1546
1	1716	1547
1	1700	1548
1	1684	1549
1	1660	1550
1	1634	1551
1	1605	1552
1	1585	1553
1	1557	1554
1	1540	1555
1	1529	1556
1	1525	1557
1	1520	1558
1	1517	1559
1	1518	1560
1	1529	1561
1	1544	1562
1	1564	1563
1	1587	1564
1	1607	1565
1	1624	1566
1	1634	1567
1	1641	1568
1	1645	1569
1	1647	1570
1	1644	1571
1	1639	1572
1	1641	1573
1	1645	1574
1	1647	1575
1	1642	1576
1	1634	1577
1	1620	1578
1	1616	1579
1	1623	1600
1	1617	1601
1	1609	1602
1	1603	1603
1	1595	1604
1	1586	1605
1	1580	1606
1	1567	1607
1	1550	1608
1	1541	1609
1	1544	1610
1	1556	1611
1	1577	1612
1	1592	1613
1	1605	1614
1	1618	1615
1	1633	1616
1	1638	1617
1	1639	1618
1	1643	1619
1	1607	1580
1	1593	1581
1	1583	1582
1	1564	1583
1	1544	1584
1	1535	1585
1	1541	1586
1	1553	1587
1	1561	1588
1	1569	1589
1	1581	1590
1	1595	1591
1	1610	1592
1	1620	1593
1	1631	1594
1	1634	1595
1	1634	1596
1	1636	1597
1	1634	1598
1	1629	1599
1	1651	1620
1	1660	1621
1	1663	1622
1	1658	1623
1	1657	1624
1	1655	1625
1	1655	1626
1	1658	1627
1	1657	1628
1	1656	1629
1	1642	1630
1	1622	1631
1	1608	1632
1	1585	1633
1	1570	1634
1	1559	1635
1	1555	1636
1	1557	1637
1	1562	1638
1	1566	1639
1	1573	1640
1	1582	1641
1	1594	1642
1	1605	1643
1	1613	1644
1	1619	1645
1	1632	1646
1	1638	1647
1	1647	1648
1	1655	1649
1	1661	1650
1	1661	1651
1	1662	1652
1	1652	1653
1	1643	1654
1	1634	1655
1	1629	1656
1	1625	1657
1	1611	1658
1	1603	1659
1	1597	1660
1	1596	1661
1	1603	1662
1	1612	1663
1	1625	1664
1	1634	1665
1	1638	1666
1	1643	1667
1	1639	1668
1	1643	1669
1	1642	1670
1	1647	1671
1	1656	1672
1	1659	1673
1	1652	1674
1	1645	1675
1	1633	1676
1	1618	1677
1	1607	1678
1	1596	1679
1	1580	1680
1	1557	1681
1	1548	1682
1	1542	1683
1	1543	1684
1	1548	1685
1	1548	1686
1	1553	1687
1	1549	1688
1	1551	1689
1	1555	1690
1	1566	1691
1	1574	1692
1	1580	1693
1	1581	1694
1	1584	1695
1	1584	1696
1	1580	1697
1	1566	1698
1	1555	1699
1	1542	1700
1	1534	1701
1	1543	1702
1	1546	1703
1	1546	1704
1	1544	1705
1	1545	1706
1	1553	1707
1	1559	1708
1	1567	1709
1	1565	1710
1	1568	1711
1	1571	1712
1	1571	1713
1	1577	1714
1	1582	1715
1	1594	1716
1	1616	1717
1	1633	1718
1	1647	1719
1	1652	1720
1	1651	1721
1	1644	1722
1	1633	1723
1	1611	1724
1	1593	1725
1	1579	1726
1	1568	1727
1	1554	1728
1	1541	1729
1	1527	1730
1	1508	1731
1	1500	1732
1	1495	1733
1	1494	1734
1	1499	1735
1	1503	1736
1	1515	1737
1	1521	1738
1	1529	1739
1	1528	1740
1	1527	1741
1	1521	1742
1	1516	1743
1	1507	1744
1	1501	1745
1	1497	1746
1	1490	1747
1	1477	1748
1	1476	1749
1	1490	1750
1	1503	1751
1	1523	1752
1	1544	1753
1	1580	1754
1	1617	1755
1	1658	1756
1	1694	1757
1	1722	1758
1	1750	1759
1	1765	1760
1	1782	1761
1	1808	1762
1	1827	1763
1	1858	1764
1	1898	1765
1	1939	1766
1	1976	1767
1	2015	1768
1	2055	1769
1	2099	1770
1	2145	1771
1	2198	1772
1	2247	1773
1	2294	1774
1	2337	1775
1	2368	1776
1	2395	1777
1	2399	1778
1	2387	1779
1	2362	1780
1	2318	1781
1	2269	1782
1	2208	1783
1	2142	1784
1	2075	1785
1	1999	1786
1	1917	1787
1	1822	1788
1	1724	1789
1	1634	1790
1	1569	1791
1	1516	1792
1	1474	1793
1	1440	1794
1	1427	1795
1	1427	1796
1	1437	1797
1	1452	1798
1	1467	1799
1	1476	1800
1	1485	1801
1	1490	1802
1	1485	1803
1	1481	1804
1	1474	1805
1	1463	1806
1	1455	1807
1	1449	1808
1	1448	1809
1	1459	1810
1	1477	1811
1	1490	1812
1	1499	1813
1	1508	1814
1	1513	1815
1	1512	1816
1	1508	1817
1	1508	1818
1	1510	1819
1	1515	1820
1	1514	1821
1	1507	1822
1	1505	1823
1	1503	1824
1	1503	1825
1	1502	1826
1	1499	1827
1	1494	1828
1	1493	1829
1	1491	1830
1	1500	1831
1	1510	1832
1	1521	1833
1	1533	1834
1	1543	1835
1	1555	1836
1	1566	1837
1	1571	1838
1	1575	1839
1	1577	1840
1	1581	1841
1	1592	1842
1	1594	1843
1	1587	1844
1	1580	1845
1	1570	1846
1	1555	1847
1	1535	1848
1	1520	1849
1	1515	1850
1	1512	1851
1	1515	1852
1	1509	1853
1	1510	1854
1	1519	1855
1	1529	1856
1	1538	1857
1	1553	1858
1	1567	1859
1	1583	1860
1	1598	1861
1	1612	1862
1	1618	1863
1	1623	1864
1	1621	1865
1	1612	1866
1	1603	1867
1	1592	1868
1	1581	1869
1	1573	1870
1	1557	1871
1	1551	1872
1	1542	1873
1	1541	1874
1	1540	1875
1	1542	1876
1	1544	1877
1	1542	1878
1	1542	1879
1	1541	1880
1	1538	1881
1	1542	1882
1	1542	1883
1	1543	1884
1	1548	1885
1	1559	1886
1	1577	1887
1	1593	1888
1	1607	1889
1	1612	1890
1	1604	1891
1	1590	1892
1	1577	1893
1	1560	1894
1	1547	1895
1	1543	1896
1	1550	1897
1	1554	1898
1	1555	1899
1	1555	1900
1	1561	1901
1	1572	1902
1	1577	1903
1	1580	1904
1	1580	1905
1	1572	1906
1	1562	1907
1	1559	1908
1	1564	1909
1	1569	1910
1	1579	1911
1	1581	1912
1	1590	1913
1	1595	1914
1	1598	1915
1	1595	1916
1	1597	1917
1	1607	1918
1	1611	1919
1	1616	1920
1	1611	1921
1	1611	1922
1	1607	1923
1	1610	1924
1	1612	1925
1	1613	1926
1	1620	1927
1	1620	1928
1	1611	1929
1	1603	1930
1	1604	1931
1	1608	1932
1	1602	1933
1	1594	1934
1	1589	1935
1	1585	1936
1	1582	1937
1	1584	1938
1	1592	1939
1	1597	1940
1	1603	1941
1	1606	1942
1	1605	1943
1	1602	1944
1	1602	1945
1	1606	1946
1	1603	1947
1	1607	1948
1	1612	1949
1	1613	1950
1	1620	1951
1	1623	1952
1	1621	1953
1	1623	1954
1	1629	1955
1	1634	1956
1	1647	1957
1	1654	1958
1	1660	1959
1	1665	1960
1	1680	1961
1	1695	1962
1	1712	1963
1	1728	1964
1	1733	1965
1	1728	1966
1	1715	1967
1	1697	1968
1	1684	1969
1	1677	1970
1	1665	1971
1	1663	1972
1	1656	1973
1	1634	1974
1	1608	1975
1	1581	1976
1	1557	1977
1	1542	1978
1	1538	1979
1	1540	1980
1	1543	1981
1	1550	1982
1	1547	1983
1	1546	1984
1	1553	1985
1	1556	1986
1	1571	1987
1	1580	1988
1	1593	1989
1	1607	1990
1	1616	1991
1	1634	1992
1	1638	1993
1	1643	1994
1	1647	1995
1	1657	1996
1	1668	1997
1	1674	1998
1	1686	1999
1	1697	2000
1	1699	2001
1	1697	2002
1	1688	2003
1	1673	2004
1	1647	2005
1	1620	2006
1	1595	2007
1	1581	2008
1	1579	2009
1	1579	2010
1	1581	2011
1	1589	2012
1	1587	2013
1	1584	2014
1	1584	2015
1	1585	2016
1	1582	2017
1	1587	2018
1	1583	2019
1	1581	2020
1	1581	2021
1	1590	2022
1	1603	2023
1	1616	2024
1	1620	2025
1	1620	2026
1	1616	2027
1	1602	2028
1	1589	2029
1	1575	2030
1	1560	2031
1	1544	2032
1	1530	2033
1	1513	2034
1	1500	2035
1	1489	2036
1	1476	2037
1	1468	2038
1	1466	2039
1	1443	2060
1	1457	2061
1	1489	2062
1	1513	2063
1	1536	2064
1	1553	2065
1	1563	2066
1	1567	2067
1	1566	2068
1	1557	2069
1	1553	2070
1	1543	2071
1	1540	2072
1	1525	2073
1	1503	2074
1	1488	2075
1	1474	2076
1	1474	2077
1	1476	2078
1	1480	2079
1	1468	2040
1	1476	2041
1	1482	2042
1	1488	2043
1	1495	2044
1	1504	2045
1	1520	2046
1	1532	2047
1	1543	2048
1	1555	2049
1	1565	2050
1	1556	2051
1	1541	2052
1	1520	2053
1	1503	2054
1	1487	2055
1	1474	2056
1	1463	2057
1	1449	2058
1	1443	2059
1	1487	2080
1	1494	2081
1	1503	2082
1	1513	2083
1	1517	2084
1	1524	2085
1	1526	2086
1	1516	2087
1	1499	2088
1	1494	2089
1	1495	2090
1	1500	2091
1	1513	2092
1	1526	2093
1	1529	2094
1	1529	2095
1	1531	2096
1	1537	2097
1	1539	2098
1	1543	2099
1	1547	2100
1	1555	2101
1	1561	2102
1	1554	2103
1	1535	2104
1	1515	2105
1	1499	2106
1	1486	2107
1	1487	2108
1	1487	2109
1	1485	2110
1	1490	2111
1	1506	2112
1	1526	2113
1	1540	2114
1	1553	2115
1	1563	2116
1	1567	2117
1	1565	2118
1	1563	2119
1	1556	2120
1	1554	2121
1	1554	2122
1	1542	2123
1	1531	2124
1	1526	2125
1	1524	2126
1	1523	2127
1	1521	2128
1	1506	2129
1	1485	2130
1	1472	2131
1	1458	2132
1	1449	2133
1	1446	2134
1	1451	2135
1	1465	2136
1	1487	2137
1	1512	2138
1	1531	2139
1	1553	2140
1	1581	2141
1	1602	2142
1	1616	2143
1	1628	2144
1	1633	2145
1	1629	2146
1	1621	2147
1	1607	2148
1	1596	2149
1	1582	2150
1	1572	2151
1	1560	2152
1	1545	2153
1	1531	2154
1	1525	2155
1	1518	2156
1	1517	2157
1	1515	2158
1	1508	2159
1	1507	2160
1	1508	2161
1	1507	2162
1	1501	2163
1	1498	2164
1	1499	2165
1	1510	2166
1	1530	2167
1	1556	2168
1	1584	2169
1	1607	2170
1	1620	2171
1	1620	2172
1	1610	2173
1	1593	2174
1	1569	2175
1	1552	2176
1	1540	2177
1	1523	2178
1	1517	2179
1	1521	2180
1	1530	2181
1	1543	2182
1	1549	2183
1	1548	2184
1	1542	2185
1	1540	2186
1	1539	2187
1	1537	2188
1	1539	2189
1	1542	2190
1	1540	2191
1	1542	2192
1	1548	2193
1	1555	2194
1	1568	2195
1	1572	2196
1	1577	2197
1	1569	2198
1	1568	2199
1	1570	2200
1	1576	2201
1	1577	2202
1	1572	2203
1	1561	2204
1	1554	2205
1	1547	2206
1	1538	2207
1	1526	2208
1	1513	2209
1	1504	2210
1	1503	2211
1	1503	2212
1	1502	2213
1	1501	2214
1	1497	2215
1	1494	2216
1	1502	2217
1	1511	2218
1	1526	2219
1	1537	2240
1	1559	2241
1	1581	2242
1	1597	2243
1	1607	2244
1	1620	2245
1	1638	2246
1	1647	2247
1	1651	2248
1	1643	2249
1	1625	2250
1	1598	2251
1	1567	2252
1	1531	2253
1	1508	2254
1	1494	2255
1	1487	2256
1	1489	2257
1	1491	2258
1	1499	2259
1	1539	2220
1	1551	2221
1	1557	2222
1	1559	2223
1	1560	2224
1	1560	2225
1	1555	2226
1	1544	2227
1	1528	2228
1	1506	2229
1	1487	2230
1	1476	2231
1	1472	2232
1	1458	2233
1	1450	2234
1	1455	2235
1	1462	2236
1	1474	2237
1	1489	2238
1	1508	2239
1	1508	2260
1	1529	2261
1	1549	2262
1	1568	2263
1	1581	2264
1	1587	2265
1	1593	2266
1	1592	2267
1	1582	2268
1	1580	2269
1	1573	2270
1	1566	2271
1	1555	2272
1	1539	2273
1	1518	2274
1	1503	2275
1	1489	2276
1	1481	2277
1	1481	2278
1	1484	2279
1	1489	2280
1	1495	2281
1	1499	2282
1	1498	2283
1	1503	2284
1	1503	2285
1	1502	2286
1	1503	2287
1	1500	2288
1	1498	2289
1	1500	2290
1	1499	2291
1	1499	2292
1	1490	2293
1	1488	2294
1	1488	2295
1	1490	2296
1	1490	2297
1	1490	2298
1	1494	2299
1	1502	2300
1	1510	2301
1	1526	2302
1	1538	2303
1	1556	2304
1	1577	2305
1	1592	2306
1	1602	2307
1	1600	2308
1	1592	2309
1	1577	2310
1	1557	2311
1	1541	2312
1	1520	2313
1	1503	2314
1	1500	2315
1	1492	2316
1	1498	2317
1	1500	2318
1	1505	2319
1	1515	2320
1	1518	2321
1	1517	2322
1	1519	2323
1	1524	2324
1	1529	2325
1	1536	2326
1	1545	2327
1	1557	2328
1	1578	2329
1	1584	2330
1	1591	2331
1	1600	2332
1	1607	2333
1	1610	2334
1	1611	2335
1	1615	2336
1	1613	2337
1	1608	2338
1	1603	2339
1	1594	2340
1	1589	2341
1	1580	2342
1	1566	2343
1	1556	2344
1	1549	2345
1	1542	2346
1	1536	2347
1	1539	2348
1	1539	2349
1	1543	2350
1	1554	2351
1	1555	2352
1	1556	2353
1	1557	2354
1	1567	2355
1	1583	2356
1	1602	2357
1	1607	2358
1	1610	2359
1	1615	2360
1	1608	2361
1	1599	2362
1	1579	2363
1	1558	2364
1	1546	2365
1	1538	2366
1	1539	2367
1	1550	2368
1	1560	2369
1	1569	2370
1	1574	2371
1	1581	2372
1	1580	2373
1	1581	2374
1	1580	2375
1	1579	2376
1	1580	2377
1	1566	2378
1	1548	2379
1	1529	2380
1	1508	2381
1	1492	2382
1	1481	2383
1	1485	2384
1	1512	2385
1	1555	2386
1	1595	2387
1	1625	2388
1	1643	2389
1	1648	2390
1	1639	2391
1	1628	2392
1	1606	2393
1	1581	2394
1	1555	2395
1	1535	2396
1	1517	2397
1	1503	2398
1	1499	2399
1	1502	2400
1	1511	2401
1	1521	2402
1	1521	2403
1	1525	2404
1	1526	2405
1	1527	2406
1	1532	2407
1	1538	2408
1	1537	2409
1	1537	2410
1	1530	2411
1	1521	2412
1	1503	2413
1	1494	2414
1	1481	2415
1	1474	2416
1	1468	2417
1	1454	2418
1	1456	2419
1	1464	2420
1	1477	2421
1	1501	2422
1	1516	2423
1	1530	2424
1	1544	2425
1	1553	2426
1	1551	2427
1	1543	2428
1	1530	2429
1	1513	2430
1	1495	2431
1	1478	2432
1	1460	2433
1	1445	2434
1	1432	2435
1	1428	2436
1	1433	2437
1	1445	2438
1	1458	2439
1	1472	2440
1	1495	2441
1	1515	2442
1	1533	2443
1	1548	2444
1	1556	2445
1	1567	2446
1	1574	2447
1	1572	2448
1	1566	2449
1	1547	2450
1	1521	2451
1	1500	2452
1	1481	2453
1	1476	2454
1	1481	2455
1	1495	2456
1	1508	2457
1	1526	2458
1	1538	2459
1	1546	2460
1	1545	2461
1	1544	2462
1	1533	2463
1	1524	2464
1	1511	2465
1	1503	2466
1	1510	2467
1	1512	2468
1	1526	2469
1	1548	2470
1	1581	2471
1	1610	2472
1	1647	2473
1	1686	2474
1	1726	2475
1	1765	2476
1	1817	2477
1	1856	2478
1	1899	2479
1	1948	2480
1	1998	2481
1	2057	2482
1	2115	2483
1	2170	2484
1	2214	2485
1	2251	2486
1	2268	2487
1	2278	2488
1	2287	2489
1	2285	2490
1	2269	2491
1	2237	2492
1	2196	2493
1	2157	2494
1	2116	2495
1	2070	2496
1	2021	2497
1	1950	2498
1	1874	2499
1	1798	2500
1	1733	2501
1	1661	2502
1	1597	2503
1	1536	2504
1	1480	2505
1	1436	2506
1	1398	2507
1	1359	2508
1	1333	2509
1	1319	2510
1	1307	2511
1	1297	2512
1	1293	2513
1	1291	2514
1	1292	2515
1	1296	2516
1	1315	2517
1	1344	2518
1	1377	2519
1	1413	2520
1	1440	2521
1	1462	2522
1	1476	2523
1	1488	2524
1	1494	2525
1	1494	2526
1	1491	2527
1	1488	2528
1	1491	2529
1	1503	2530
1	1508	2531
1	1529	2532
1	1539	2533
1	1543	2534
1	1553	2535
1	1563	2536
1	1575	2537
1	1584	2538
1	1590	2539
1	1482	2560
1	1492	2561
1	1499	2562
1	1502	2563
1	1505	2564
1	1512	2565
1	1524	2566
1	1529	2567
1	1530	2568
1	1539	2569
1	1548	2570
1	1548	2571
1	1542	2572
1	1530	2573
1	1520	2574
1	1515	2575
1	1515	2576
1	1521	2577
1	1539	2578
1	1554	2579
1	1593	2540
1	1594	2541
1	1587	2542
1	1580	2543
1	1571	2544
1	1561	2545
1	1556	2546
1	1542	2547
1	1531	2548
1	1521	2549
1	1514	2550
1	1505	2551
1	1502	2552
1	1495	2553
1	1490	2554
1	1482	2555
1	1476	2556
1	1476	2557
1	1475	2558
1	1476	2559
1	1568	2580
1	1579	2581
1	1579	2582
1	1566	2583
1	1563	2584
1	1561	2585
1	1557	2586
1	1548	2587
1	1530	2588
1	1511	2589
1	1505	2590
1	1499	2591
1	1501	2592
1	1505	2593
1	1515	2594
1	1524	2595
1	1529	2596
1	1533	2597
1	1534	2598
1	1543	2599
1	1555	2600
1	1566	2601
1	1581	2602
1	1582	2603
1	1579	2604
1	1566	2605
1	1553	2606
1	1529	2607
1	1503	2608
1	1476	2609
1	1449	2610
1	1426	2611
1	1422	2612
1	1419	2613
1	1425	2614
1	1435	2615
1	1450	2616
1	1477	2617
1	1502	2618
1	1534	2619
1	1579	2620
1	1628	2621
1	1669	2622
1	1700	2623
1	1713	2624
1	1711	2625
1	1697	2626
1	1682	2627
1	1655	2628
1	1632	2629
1	1606	2630
1	1572	2631
1	1546	2632
1	1530	2633
1	1503	2634
1	1484	2635
1	1476	2636
1	1477	2637
1	1492	2638
1	1512	2639
1	1534	2640
1	1561	2641
1	1585	2642
1	1597	2643
1	1607	2644
1	1613	2645
1	1623	2646
1	1636	2647
1	1651	2648
1	1660	2649
1	1671	2650
1	1670	2651
1	1661	2652
1	1654	2653
1	1638	2654
1	1625	2655
1	1610	2656
1	1602	2657
1	1589	2658
1	1579	2659
1	1557	2660
1	1544	2661
1	1538	2662
1	1533	2663
1	1541	2664
1	1555	2665
1	1577	2666
1	1607	2667
1	1638	2668
1	1661	2669
1	1675	2670
1	1681	2671
1	1681	2672
1	1670	2673
1	1660	2674
1	1647	2675
1	1629	2676
1	1612	2677
1	1594	2678
1	1579	2679
1	1565	2680
1	1553	2681
1	1535	2682
1	1519	2683
1	1503	2684
1	1503	2685
1	1508	2686
1	1515	2687
1	1517	2688
1	1529	2689
1	1546	2690
1	1570	2691
1	1599	2692
1	1620	2693
1	1638	2694
1	1649	2695
1	1657	2696
1	1661	2697
1	1668	2698
1	1670	2699
1	1667	2700
1	1661	2701
1	1652	2702
1	1638	2703
1	1635	2704
1	1636	2705
1	1637	2706
1	1643	2707
1	1637	2708
1	1633	2709
1	1624	2710
1	1614	2711
1	1603	2712
1	1592	2713
1	1580	2714
1	1561	2715
1	1543	2716
1	1529	2717
1	1510	2718
1	1503	2719
1	1511	2720
1	1530	2721
1	1557	2722
1	1581	2723
1	1593	2724
1	1593	2725
1	1584	2726
1	1571	2727
1	1555	2728
1	1550	2729
1	1553	2730
1	1563	2731
1	1574	2732
1	1578	2733
1	1573	2734
1	1567	2735
1	1561	2736
1	1559	2737
1	1563	2738
1	1575	2739
1	1611	2760
1	1612	2761
1	1615	2762
1	1607	2763
1	1607	2764
1	1602	2765
1	1593	2766
1	1579	2767
1	1551	2768
1	1515	2769
1	1484	2770
1	1458	2771
1	1440	2772
1	1432	2773
1	1430	2774
1	1435	2775
1	1443	2776
1	1454	2777
1	1462	2778
1	1474	2779
1	1584	2740
1	1598	2741
1	1593	2742
1	1577	2743
1	1555	2744
1	1535	2745
1	1518	2746
1	1503	2747
1	1494	2748
1	1492	2749
1	1495	2750
1	1503	2751
1	1518	2752
1	1528	2753
1	1537	2754
1	1555	2755
1	1577	2756
1	1594	2757
1	1607	2758
1	1613	2759
1	1476	2780
1	1476	2781
1	1472	2782
1	1466	2783
1	1463	2784
1	1463	2785
1	1455	2786
1	1448	2787
1	1440	2788
1	1433	2789
1	1432	2790
1	1437	2791
1	1445	2792
1	1456	2793
1	1470	2794
1	1489	2795
1	1506	2796
1	1530	2797
1	1548	2798
1	1565	2799
1	1581	2800
1	1592	2801
1	1598	2802
1	1602	2803
1	1595	2804
1	1581	2805
1	1561	2806
1	1542	2807
1	1526	2808
1	1517	2809
1	1513	2810
1	1518	2811
1	1528	2812
1	1525	2813
1	1516	2814
1	1508	2815
1	1503	2816
1	1489	2817
1	1476	2818
1	1454	2819
1	1442	2820
1	1433	2821
1	1427	2822
1	1424	2823
1	1426	2824
1	1436	2825
1	1450	2826
1	1469	2827
1	1489	2828
1	1516	2829
1	1544	2830
1	1568	2831
1	1596	2832
1	1603	2833
1	1607	2834
1	1607	2835
1	1602	2836
1	1594	2837
1	1581	2838
1	1568	2839
1	1560	2840
1	1555	2841
1	1547	2842
1	1534	2843
1	1516	2844
1	1495	2845
1	1488	2846
1	1474	2847
1	1461	2848
1	1450	2849
1	1449	2850
1	1454	2851
1	1458	2852
1	1451	2853
1	1450	2854
1	1449	2855
1	1451	2856
1	1466	2857
1	1475	2858
1	1481	2859
1	1486	2860
1	1487	2861
1	1484	2862
1	1482	2863
1	1487	2864
1	1499	2865
1	1515	2866
1	1535	2867
1	1544	2868
1	1554	2869
1	1564	2870
1	1572	2871
1	1584	2872
1	1584	2873
1	1581	2874
1	1578	2875
1	1571	2876
1	1570	2877
1	1573	2878
1	1580	2879
1	1587	2880
1	1590	2881
1	1587	2882
1	1581	2883
1	1580	2884
1	1576	2885
1	1571	2886
1	1568	2887
1	1556	2888
1	1541	2889
1	1539	2890
1	1533	2891
1	1530	2892
1	1526	2893
1	1525	2894
1	1520	2895
1	1517	2896
1	1517	2897
1	1511	2898
1	1503	2899
1	1501	2900
1	1500	2901
1	1503	2902
1	1503	2903
1	1505	2904
1	1507	2905
1	1515	2906
1	1529	2907
1	1545	2908
1	1564	2909
1	1584	2910
1	1602	2911
1	1611	2912
1	1609	2913
1	1608	2914
1	1606	2915
1	1594	2916
1	1584	2917
1	1567	2918
1	1555	2919
1	1595	2940
1	1584	2941
1	1579	2942
1	1566	2943
1	1564	2944
1	1564	2945
1	1566	2946
1	1566	2947
1	1567	2948
1	1566	2949
1	1561	2950
1	1548	2951
1	1533	2952
1	1521	2953
1	1515	2954
1	1512	2955
1	1514	2956
1	1519	2957
1	1518	2958
1	1520	2959
1	1544	2920
1	1539	2921
1	1541	2922
1	1544	2923
1	1548	2924
1	1555	2925
1	1562	2926
1	1569	2927
1	1564	2928
1	1559	2929
1	1555	2930
1	1555	2931
1	1568	2932
1	1579	2933
1	1579	2934
1	1580	2935
1	1584	2936
1	1595	2937
1	1602	2938
1	1605	2939
1	1527	2960
1	1535	2961
1	1557	2962
1	1574	2963
1	1585	2964
1	1594	2965
1	1602	2966
1	1607	2967
1	1607	2968
1	1603	2969
1	1590	2970
1	1572	2971
1	1555	2972
1	1539	2973
1	1527	2974
1	1517	2975
1	1517	2976
1	1526	2977
1	1535	2978
1	1544	2979
1	1556	2980
1	1567	2981
1	1575	2982
1	1580	2983
1	1581	2984
1	1585	2985
1	1594	2986
1	1605	2987
1	1597	2988
1	1597	2989
1	1592	2990
1	1587	2991
1	1592	2992
1	1597	2993
1	1603	2994
1	1607	2995
1	1607	2996
1	1605	2997
1	1607	2998
1	1616	2999
1	1629	3000
1	1634	3001
1	1634	3002
1	1621	3003
1	1607	3004
1	1593	3005
1	1583	3006
1	1581	3007
1	1585	3008
1	1598	3009
1	1616	3010
1	1629	3011
1	1637	3012
1	1635	3013
1	1638	3014
1	1638	3015
1	1641	3016
1	1650	3017
1	1658	3018
1	1661	3019
1	1664	3020
1	1670	3021
1	1674	3022
1	1676	3023
1	1681	3024
1	1679	3025
1	1670	3026
1	1652	3027
1	1634	3028
1	1619	3029
1	1603	3030
1	1593	3031
1	1589	3032
1	1592	3033
1	1602	3034
1	1608	3035
1	1619	3036
1	1629	3037
1	1644	3038
1	1659	3039
1	1672	3040
1	1687	3041
1	1690	3042
1	1690	3043
1	1686	3044
1	1672	3045
1	1652	3046
1	1636	3047
1	1625	3048
1	1616	3049
1	1608	3050
1	1615	3051
1	1633	3052
1	1646	3053
1	1665	3054
1	1686	3055
1	1700	3056
1	1707	3057
1	1710	3058
1	1708	3059
1	1648	3080
1	1670	3081
1	1688	3082
1	1692	3083
1	1686	3084
1	1682	3085
1	1674	3086
1	1661	3087
1	1647	3088
1	1636	3089
1	1620	3090
1	1607	3091
1	1584	3092
1	1574	3093
1	1568	3094
1	1572	3095
1	1581	3096
1	1594	3097
1	1600	3098
1	1603	3099
1	1703	3060
1	1688	3061
1	1665	3062
1	1633	3063
1	1597	3064
1	1567	3065
1	1541	3066
1	1510	3067
1	1482	3068
1	1463	3069
1	1454	3070
1	1451	3071
1	1451	3072
1	1455	3073
1	1479	3074
1	1517	3075
1	1555	3076
1	1593	3077
1	1612	3078
1	1633	3079
1	1598	3100
1	1597	3101
1	1599	3102
1	1602	3103
1	1607	3104
1	1607	3105
1	1605	3106
1	1599	3107
1	1592	3108
1	1581	3109
1	1567	3110
1	1551	3111
1	1536	3112
1	1526	3113
1	1519	3114
1	1517	3115
1	1516	3116
1	1520	3117
1	1529	3118
1	1538	3119
1	1546	3120
1	1557	3121
1	1568	3122
1	1576	3123
1	1586	3124
1	1597	3125
1	1605	3126
1	1616	3127
1	1631	3128
1	1650	3129
1	1668	3130
1	1690	3131
1	1724	3132
1	1746	3133
1	1770	3134
1	1796	3135
1	1838	3136
1	1878	3137
1	1926	3138
1	1982	3139
1	2034	3140
1	2086	3141
1	2127	3142
1	2170	3143
1	2206	3144
1	2235	3145
1	2267	3146
1	2288	3147
1	2302	3148
1	2302	3149
1	2288	3150
1	2262	3151
1	2219	3152
1	2168	3153
1	2120	3154
1	2071	3155
1	2026	3156
1	1974	3157
1	1914	3158
1	1852	3159
1	1786	3160
1	1731	3161
1	1682	3162
1	1640	3163
1	1607	3164
1	1580	3165
1	1555	3166
1	1536	3167
1	1512	3168
1	1495	3169
1	1482	3170
1	1472	3171
1	1464	3172
1	1451	3173
1	1445	3174
1	1446	3175
1	1454	3176
1	1472	3177
1	1492	3178
1	1515	3179
1	1585	3200
1	1579	3201
1	1572	3202
1	1559	3203
1	1554	3204
1	1548	3205
1	1547	3206
1	1544	3207
1	1543	3208
1	1539	3209
1	1541	3210
1	1544	3211
1	1552	3212
1	1553	3213
1	1557	3214
1	1566	3215
1	1573	3216
1	1581	3217
1	1586	3218
1	1596	3219
1	1531	3180
1	1548	3181
1	1555	3182
1	1553	3183
1	1551	3184
1	1553	3185
1	1557	3186
1	1573	3187
1	1589	3188
1	1606	3189
1	1616	3190
1	1622	3191
1	1634	3192
1	1637	3193
1	1638	3194
1	1635	3195
1	1628	3196
1	1619	3197
1	1607	3198
1	1599	3199
1	1622	3260
1	1646	3261
1	1665	3262
1	1678	3263
1	1677	3264
1	1672	3265
1	1662	3266
1	1652	3267
1	1629	3268
1	1600	3269
1	1589	3270
1	1573	3271
1	1555	3272
1	1542	3273
1	1541	3274
1	1553	3275
1	1576	3276
1	1604	3277
1	1625	3278
1	1647	3279
1	1639	3240
1	1635	3241
1	1628	3242
1	1616	3243
1	1612	3244
1	1613	3245
1	1616	3246
1	1611	3247
1	1616	3248
1	1619	3249
1	1625	3250
1	1626	3251
1	1620	3252
1	1607	3253
1	1598	3254
1	1593	3255
1	1590	3256
1	1595	3257
1	1598	3258
1	1607	3259
1	1607	3220
1	1616	3221
1	1622	3222
1	1631	3223
1	1638	3224
1	1638	3225
1	1641	3226
1	1644	3227
1	1639	3228
1	1645	3229
1	1648	3230
1	1651	3231
1	1649	3232
1	1648	3233
1	1643	3234
1	1637	3235
1	1634	3236
1	1632	3237
1	1634	3238
1	1638	3239
1	1685	3300
1	1674	3301
1	1661	3302
1	1644	3303
1	1630	3304
1	1620	3305
1	1623	3306
1	1631	3307
1	1641	3308
1	1661	3309
1	1686	3310
1	1710	3311
1	1738	3312
1	1764	3313
1	1787	3314
1	1795	3315
1	1812	3316
1	1817	3317
1	1811	3318
1	1800	3319
1	1667	3280
1	1692	3281
1	1719	3282
1	1749	3283
1	1765	3284
1	1780	3285
1	1788	3286
1	1788	3287
1	1773	3288
1	1764	3289
1	1751	3290
1	1737	3291
1	1724	3292
1	1711	3293
1	1705	3294
1	1701	3295
1	1700	3296
1	1698	3297
1	1693	3298
1	1687	3299
1	1792	3320
1	1791	3321
1	1789	3322
1	1776	3323
1	1762	3324
1	1742	3325
1	1727	3326
1	1713	3327
1	1711	3328
1	1709	3329
1	1702	3330
1	1686	3331
1	1677	3332
1	1671	3333
1	1670	3334
1	1681	3335
1	1688	3336
1	1697	3337
1	1699	3338
1	1703	3339
1	1712	3340
1	1731	3341
1	1764	3342
1	1791	3343
1	1818	3344
1	1836	3345
1	1841	3346
1	1829	3347
1	1800	3348
1	1777	3349
1	1751	3350
1	1733	3351
1	1718	3352
1	1710	3353
1	1705	3354
1	1705	3355
1	1708	3356
1	1710	3357
1	1712	3358
1	1723	3359
1	1782	3380
1	1777	3381
1	1765	3382
1	1751	3383
1	1735	3384
1	1711	3385
1	1686	3386
1	1669	3387
1	1648	3388
1	1636	3389
1	1633	3390
1	1633	3391
1	1629	3392
1	1620	3393
1	1605	3394
1	1597	3395
1	1596	3396
1	1607	3397
1	1625	3398
1	1645	3399
1	1738	3360
1	1751	3361
1	1755	3362
1	1748	3363
1	1740	3364
1	1740	3365
1	1747	3366
1	1749	3367
1	1738	3368
1	1728	3369
1	1724	3370
1	1726	3371
1	1730	3372
1	1739	3373
1	1751	3374
1	1764	3375
1	1780	3376
1	1791	3377
1	1791	3378
1	1790	3379
1	1665	3400
1	1688	3401
1	1710	3402
1	1720	3403
1	1724	3404
1	1724	3405
1	1712	3406
1	1697	3407
1	1683	3408
1	1678	3409
1	1677	3410
1	1678	3411
1	1670	3412
1	1658	3413
1	1636	3414
1	1615	3415
1	1598	3416
1	1582	3417
1	1579	3418
1	1581	3419
1	1593	3420
1	1606	3421
1	1613	3422
1	1619	3423
1	1635	3424
1	1659	3425
1	1682	3426
1	1699	3427
1	1710	3428
1	1710	3429
1	1698	3430
1	1692	3431
1	1687	3432
1	1670	3433
1	1652	3434
1	1634	3435
1	1608	3436
1	1590	3437
1	1570	3438
1	1555	3439
1	1553	3440
1	1559	3441
1	1566	3442
1	1581	3443
1	1598	3444
1	1616	3445
1	1645	3446
1	1661	3447
1	1672	3448
1	1677	3449
1	1677	3450
1	1680	3451
1	1682	3452
1	1670	3453
1	1664	3454
1	1663	3455
1	1670	3456
1	1677	3457
1	1681	3458
1	1675	3459
1	1665	3460
1	1659	3461
1	1647	3462
1	1638	3463
1	1628	3464
1	1611	3465
1	1594	3466
1	1581	3467
1	1566	3468
1	1561	3469
1	1566	3470
1	1581	3471
1	1598	3472
1	1620	3473
1	1649	3474
1	1677	3475
1	1705	3476
1	1724	3477
1	1730	3478
1	1721	3479
1	1704	3500
1	1711	3501
1	1711	3502
1	1705	3503
1	1700	3504
1	1699	3505
1	1699	3506
1	1698	3507
1	1697	3508
1	1697	3509
1	1690	3510
1	1679	3511
1	1661	3512
1	1647	3513
1	1647	3514
1	1660	3515
1	1679	3516
1	1697	3517
1	1712	3518
1	1718	3519
1	1712	3480
1	1700	3481
1	1685	3482
1	1660	3483
1	1633	3484
1	1608	3485
1	1594	3486
1	1585	3487
1	1574	3488
1	1569	3489
1	1571	3490
1	1580	3491
1	1587	3492
1	1597	3493
1	1608	3494
1	1627	3495
1	1651	3496
1	1674	3497
1	1687	3498
1	1699	3499
1	1724	3520
1	1724	3521
1	1715	3522
1	1702	3523
1	1687	3524
1	1675	3525
1	1665	3526
1	1660	3527
1	1654	3528
1	1651	3529
1	1647	3530
1	1646	3531
1	1638	3532
1	1637	3533
1	1634	3534
1	1635	3535
1	1634	3536
1	1643	3537
1	1653	3538
1	1667	3539
1	1628	3560
1	1641	3561
1	1665	3562
1	1686	3563
1	1705	3564
1	1719	3565
1	1726	3566
1	1722	3567
1	1711	3568
1	1700	3569
1	1692	3570
1	1690	3571
1	1695	3572
1	1697	3573
1	1705	3574
1	1711	3575
1	1710	3576
1	1698	3577
1	1679	3578
1	1664	3579
1	1683	3540
1	1695	3541
1	1706	3542
1	1708	3543
1	1711	3544
1	1714	3545
1	1712	3546
1	1700	3547
1	1684	3548
1	1673	3549
1	1669	3550
1	1659	3551
1	1647	3552
1	1644	3553
1	1639	3554
1	1638	3555
1	1633	3556
1	1625	3557
1	1613	3558
1	1616	3559
1	1711	3600
1	1724	3601
1	1734	3602
1	1731	3603
1	1729	3604
1	1730	3605
1	1728	3606
1	1724	3607
1	1711	3608
1	1699	3609
1	1690	3610
1	1690	3611
1	1693	3612
1	1697	3613
1	1699	3614
1	1694	3615
1	1686	3616
1	1685	3617
1	1682	3618
1	1682	3619
1	1661	3580
1	1660	3581
1	1663	3582
1	1664	3583
1	1668	3584
1	1675	3585
1	1683	3586
1	1686	3587
1	1671	3588
1	1660	3589
1	1646	3590
1	1633	3591
1	1624	3592
1	1608	3593
1	1600	3594
1	1605	3595
1	1620	3596
1	1638	3597
1	1661	3598
1	1687	3599
1	1685	3620
1	1686	3621
1	1690	3622
1	1681	3623
1	1661	3624
1	1646	3625
1	1635	3626
1	1635	3627
1	1648	3628
1	1661	3629
1	1670	3630
1	1678	3631
1	1681	3632
1	1683	3633
1	1683	3634
1	1683	3635
1	1680	3636
1	1662	3637
1	1647	3638
1	1638	3639
1	1634	3640
1	1647	3641
1	1667	3642
1	1691	3643
1	1711	3644
1	1723	3645
1	1733	3646
1	1738	3647
1	1737	3648
1	1734	3649
1	1723	3650
1	1706	3651
1	1688	3652
1	1662	3653
1	1644	3654
1	1628	3655
1	1613	3656
1	1607	3657
1	1603	3658
1	1598	3659
1	1595	3660
1	1595	3661
1	1607	3662
1	1620	3663
1	1635	3664
1	1651	3665
1	1662	3666
1	1680	3667
1	1682	3668
1	1673	3669
1	1665	3670
1	1657	3671
1	1647	3672
1	1639	3673
1	1640	3674
1	1647	3675
1	1659	3676
1	1662	3677
1	1660	3678
1	1651	3679
1	1646	3680
1	1643	3681
1	1652	3682
1	1659	3683
1	1660	3684
1	1662	3685
1	1669	3686
1	1676	3687
1	1674	3688
1	1675	3689
1	1671	3690
1	1665	3691
1	1659	3692
1	1651	3693
1	1647	3694
1	1654	3695
1	1669	3696
1	1699	3697
1	1723	3698
1	1755	3699
1	1790	3700
1	1823	3701
1	1856	3702
1	1885	3703
1	1905	3704
1	1910	3705
1	1901	3706
1	1880	3707
1	1850	3708
1	1824	3709
1	1796	3710
1	1767	3711
1	1751	3712
1	1735	3713
1	1716	3714
1	1699	3715
1	1686	3716
1	1670	3717
1	1648	3718
1	1625	3719
1	1610	3720
1	1618	3721
1	1634	3722
1	1642	3723
1	1651	3724
1	1661	3725
1	1670	3726
1	1687	3727
1	1701	3728
1	1713	3729
1	1725	3730
1	1734	3731
1	1742	3732
1	1744	3733
1	1750	3734
1	1751	3735
1	1736	3736
1	1716	3737
1	1690	3738
1	1661	3739
1	1634	3740
1	1608	3741
1	1583	3742
1	1554	3743
1	1537	3744
1	1519	3745
1	1510	3746
1	1512	3747
1	1524	3748
1	1541	3749
1	1563	3750
1	1593	3751
1	1625	3752
1	1656	3753
1	1685	3754
1	1698	3755
1	1711	3756
1	1724	3757
1	1728	3758
1	1726	3759
1	1713	3760
1	1688	3761
1	1659	3762
1	1622	3763
1	1589	3764
1	1555	3765
1	1530	3766
1	1512	3767
1	1500	3768
1	1503	3769
1	1520	3770
1	1541	3771
1	1575	3772
1	1607	3773
1	1638	3774
1	1667	3775
1	1699	3776
1	1723	3777
1	1739	3778
1	1752	3779
1	1764	3780
1	1766	3781
1	1764	3782
1	1750	3783
1	1731	3784
1	1707	3785
1	1682	3786
1	1661	3787
1	1635	3788
1	1607	3789
1	1584	3790
1	1574	3791
1	1580	3792
1	1587	3793
1	1603	3794
1	1620	3795
1	1641	3796
1	1659	3797
1	1664	3798
1	1674	3799
1	1686	3800
1	1697	3801
1	1712	3802
1	1721	3803
1	1728	3804
1	1738	3805
1	1749	3806
1	1764	3807
1	1791	3808
1	1827	3809
1	1861	3810
1	1903	3811
1	1945	3812
1	1985	3813
1	2027	3814
1	2075	3815
1	2114	3816
1	2157	3817
1	2196	3818
1	2238	3819
1	1659	3840
1	1629	3841
1	1610	3842
1	1592	3843
1	1580	3844
1	1563	3845
1	1549	3846
1	1530	3847
1	1499	3848
1	1477	3849
1	1464	3850
1	1456	3851
1	1460	3852
1	1475	3853
1	1492	3854
1	1518	3855
1	1547	3856
1	1575	3857
1	1592	3858
1	1606	3859
1	2288	3820
1	2338	3821
1	2388	3822
1	2432	3823
1	2467	3824
1	2493	3825
1	2496	3826
1	2476	3827
1	2419	3828
1	2348	3829
1	2278	3830
1	2204	3831
1	2132	3832
1	2074	3833
1	1999	3834
1	1930	3835
1	1865	3836
1	1799	3837
1	1746	3838
1	1697	3839
1	1620	3860
1	1636	3861
1	1652	3862
1	1669	3863
1	1676	3864
1	1686	3865
1	1694	3866
1	1694	3867
1	1690	3868
1	1681	3869
1	1662	3870
1	1654	3871
1	1649	3872
1	1641	3873
1	1638	3874
1	1643	3875
1	1643	3876
1	1643	3877
1	1633	3878
1	1626	3879
1	1685	3900
1	1716	3901
1	1739	3902
1	1742	3903
1	1738	3904
1	1725	3905
1	1710	3906
1	1698	3907
1	1683	3908
1	1662	3909
1	1647	3910
1	1635	3911
1	1631	3912
1	1629	3913
1	1625	3914
1	1626	3915
1	1629	3916
1	1629	3917
1	1620	3918
1	1617	3919
1	1628	3880
1	1631	3881
1	1639	3882
1	1659	3883
1	1677	3884
1	1690	3885
1	1693	3886
1	1683	3887
1	1657	3888
1	1634	3889
1	1609	3890
1	1585	3891
1	1572	3892
1	1555	3893
1	1550	3894
1	1555	3895
1	1577	3896
1	1600	3897
1	1629	3898
1	1652	3899
1	1623	3920
1	1634	3921
1	1639	3922
1	1641	3923
1	1643	3924
1	1639	3925
1	1634	3926
1	1626	3927
1	1620	3928
1	1616	3929
1	1609	3930
1	1613	3931
1	1623	3932
1	1634	3933
1	1644	3934
1	1651	3935
1	1662	3936
1	1668	3937
1	1667	3938
1	1676	3939
1	1678	3940
1	1689	3941
1	1698	3942
1	1702	3943
1	1708	3944
1	1713	3945
1	1723	3946
1	1724	3947
1	1710	3948
1	1691	3949
1	1678	3950
1	1661	3951
1	1659	3952
1	1647	3953
1	1645	3954
1	1650	3955
1	1661	3956
1	1672	3957
1	1685	3958
1	1695	3959
1	1710	3960
1	1724	3961
1	1739	3962
1	1746	3963
1	1751	3964
1	1754	3965
1	1753	3966
1	1751	3967
1	1740	3968
1	1730	3969
1	1724	3970
1	1721	3971
1	1715	3972
1	1705	3973
1	1693	3974
1	1690	3975
1	1697	3976
1	1706	3977
1	1712	3978
1	1721	3979
1	1730	3980
1	1737	3981
1	1750	3982
1	1761	3983
1	1767	3984
1	1772	3985
1	1769	3986
1	1764	3987
1	1759	3988
1	1757	3989
1	1754	3990
1	1752	3991
1	1751	3992
1	1759	3993
1	1767	3994
1	1773	3995
1	1770	3996
1	1764	3997
1	1751	3998
1	1743	3999
1	1734	4000
1	1718	4001
1	1701	4002
1	1688	4003
1	1677	4004
1	1675	4005
1	1682	4006
1	1686	4006
1	1682	4008
1	1679	4009
1	1682	4010
1	1685	4011
1	1701	4012
1	1712	4013
1	1724	4014
1	1736	4014
1	1741	4016
1	1748	4017
1	1753	4018
1	1749	4019
1	1741	4020
1	1738	4021
1	1737	4022
1	1730	4022
1	1733	4024
1	1739	4025
1	1752	4026
1	1778	4027
1	1799	4028
1	1818	4029
1	1830	4030
1	1835	4030
1	1847	4032
1	1843	4033
1	1843	4034
1	1842	4035
1	1832	4036
1	1817	4037
1	1796	4038
1	1773	4038
1	1751	4040
1	1727	4041
1	1704	4042
1	1684	4043
1	1677	4044
1	1680	4045
1	1698	4046
1	1712	4046
1	1730	4048
1	1740	4049
1	1750	4050
1	1755	4051
1	1757	4052
1	1749	4053
1	1739	4054
1	1729	4054
1	1716	4056
1	1712	4057
1	1711	4058
1	1711	4059
1	1712	4060
1	1712	4061
1	1710	4062
1	1707	4062
1	1711	4064
1	1716	4065
1	1724	4066
1	1730	4067
1	1726	4068
1	1714	4069
1	1703	4070
1	1692	4070
1	1688	4072
1	1684	4073
1	1681	4074
1	1683	4075
1	1686	4076
1	1690	4077
1	1689	4078
1	1675	4078
1	1648	4080
1	1620	4081
1	1598	4082
1	1581	4083
1	1576	4084
1	1580	4085
1	1589	4086
1	1607	4086
1	1625	4088
1	1638	4089
1	1647	4090
1	1647	4091
1	1648	4092
1	1642	4093
1	1641	4094
1	1644	4094
1	1647	4096
1	1646	4097
1	1636	4098
1	1630	4099
1	1623	4100
1	1619	4101
1	1621	4102
1	1620	4103
1	1615	4104
1	1608	4105
1	1598	4106
1	1585	4107
1	1577	4108
1	1564	4109
1	1557	4110
1	1556	4111
1	1560	4112
1	1557	4113
1	1564	4114
1	1577	4115
1	1582	4116
1	1599	4117
1	1611	4118
1	1621	4119
1	1628	4120
1	1634	4121
1	1649	4122
1	1662	4123
1	1668	4124
1	1670	4125
1	1667	4126
1	1660	4127
1	1645	4128
1	1636	4129
1	1631	4130
1	1620	4131
1	1611	4132
1	1620	4133
1	1622	4134
1	1616	4135
1	1613	4136
1	1620	4137
1	1621	4138
1	1634	4139
1	1652	4140
1	1670	4141
1	1688	4142
1	1710	4143
1	1723	4144
1	1731	4145
1	1728	4146
1	1726	4147
1	1723	4148
1	1713	4149
1	1712	4150
1	1701	4151
1	1688	4152
1	1683	4153
1	1673	4154
1	1661	4155
1	1652	4156
1	1647	4157
1	1647	4158
1	1655	4159
1	1660	4160
1	1665	4161
1	1680	4162
1	1688	4163
1	1697	4164
1	1704	4165
1	1708	4166
1	1711	4167
1	1708	4168
1	1699	4169
1	1692	4170
1	1689	4171
1	1688	4172
1	1688	4173
1	1698	4174
1	1705	4175
1	1711	4176
1	1719	4177
1	1717	4178
1	1714	4179
1	1714	4180
1	1721	4181
1	1723	4182
1	1715	4183
1	1709	4184
1	1699	4185
1	1692	4186
1	1687	4187
1	1674	4188
1	1671	4189
1	1668	4190
1	1665	4191
1	1667	4192
1	1664	4193
1	1660	4194
1	1662	4195
1	1669	4196
1	1679	4197
1	1690	4198
1	1700	4199
1	1712	4200
1	1721	4201
1	1718	4202
1	1710	4203
1	1706	4204
1	1703	4205
1	1704	4206
1	1712	4207
1	1712	4208
1	1713	4209
1	1717	4210
1	1730	4211
1	1746	4212
1	1763	4213
1	1778	4214
1	1795	4215
1	1816	4216
1	1826	4217
1	1822	4218
1	1817	4219
1	1796	4220
1	1778	4221
1	1766	4222
1	1747	4223
1	1727	4224
1	1713	4225
1	1701	4226
1	1686	4227
1	1673	4228
1	1659	4229
1	1647	4230
1	1651	4231
1	1660	4232
1	1679	4233
1	1698	4234
1	1718	4235
1	1742	4236
1	1760	4237
1	1778	4238
1	1791	4239
1	1643	4280
1	1637	4281
1	1631	4282
1	1611	4283
1	1598	4284
1	1593	4285
1	1599	4286
1	1607	4287
1	1611	4288
1	1619	4289
1	1623	4290
1	1630	4291
1	1641	4292
1	1651	4293
1	1662	4294
1	1674	4295
1	1686	4296
1	1698	4297
1	1698	4298
1	1698	4299
1	1737	4260
1	1738	4261
1	1737	4262
1	1718	4263
1	1701	4264
1	1686	4265
1	1680	4266
1	1679	4267
1	1668	4268
1	1649	4269
1	1631	4270
1	1611	4271
1	1602	4272
1	1595	4273
1	1594	4274
1	1603	4275
1	1617	4276
1	1633	4277
1	1638	4278
1	1638	4279
1	1690	4300
1	1681	4301
1	1667	4302
1	1664	4303
1	1665	4304
1	1664	4305
1	1660	4306
1	1652	4307
1	1635	4308
1	1622	4309
1	1616	4310
1	1615	4311
1	1628	4312
1	1632	4313
1	1634	4314
1	1634	4315
1	1632	4316
1	1625	4317
1	1626	4318
1	1632	4319
1	1793	4240
1	1803	4241
1	1803	4242
1	1798	4243
1	1791	4244
1	1777	4245
1	1752	4246
1	1721	4247
1	1689	4248
1	1672	4249
1	1660	4250
1	1658	4251
1	1666	4252
1	1676	4253
1	1688	4254
1	1701	4255
1	1712	4256
1	1722	4257
1	1731	4258
1	1737	4259
1	1657	4340
1	1651	4341
1	1647	4342
1	1646	4343
1	1643	4344
1	1639	4345
1	1647	4346
1	1648	4347
1	1655	4348
1	1661	4349
1	1668	4350
1	1677	4351
1	1687	4352
1	1686	4353
1	1686	4354
1	1687	4355
1	1683	4356
1	1674	4357
1	1657	4358
1	1629	4359
1	1634	4320
1	1634	4321
1	1643	4322
1	1642	4323
1	1637	4324
1	1633	4325
1	1620	4326
1	1613	4327
1	1607	4328
1	1603	4329
1	1592	4330
1	1590	4331
1	1600	4332
1	1600	4333
1	1607	4334
1	1620	4335
1	1634	4336
1	1641	4337
1	1651	4338
1	1656	4339
1	1605	4360
1	1581	4361
1	1559	4362
1	1550	4363
1	1553	4364
1	1566	4365
1	1581	4366
1	1606	4367
1	1628	4368
1	1649	4369
1	1668	4370
1	1688	4371
1	1712	4372
1	1725	4373
1	1730	4374
1	1722	4375
1	1707	4376
1	1693	4377
1	1686	4378
1	1686	4379
1	1660	4400
1	1684	4401
1	1707	4402
1	1718	4403
1	1728	4404
1	1731	4405
1	1726	4406
1	1716	4407
1	1705	4408
1	1686	4409
1	1669	4410
1	1659	4411
1	1644	4412
1	1632	4413
1	1611	4414
1	1593	4415
1	1575	4416
1	1559	4417
1	1553	4418
1	1553	4419
1	1688	4380
1	1689	4381
1	1692	4382
1	1686	4383
1	1680	4384
1	1673	4385
1	1661	4386
1	1656	4387
1	1646	4388
1	1639	4389
1	1632	4390
1	1635	4391
1	1634	4392
1	1634	4393
1	1634	4394
1	1634	4395
1	1639	4396
1	1643	4397
1	1638	4398
1	1644	4399
1	1557	4420
1	1567	4421
1	1581	4422
1	1595	4423
1	1608	4424
1	1623	4425
1	1635	4426
1	1637	4427
1	1644	4428
1	1652	4429
1	1660	4430
1	1661	4431
1	1655	4432
1	1648	4433
1	1634	4434
1	1615	4435
1	1617	4436
1	1619	4437
1	1621	4438
1	1620	4439
1	1619	4440
1	1619	4441
1	1618	4442
1	1612	4443
1	1602	4444
1	1583	4445
1	1562	4446
1	1542	4447
1	1528	4448
1	1517	4449
1	1513	4450
1	1525	4451
1	1531	4452
1	1551	4453
1	1572	4454
1	1589	4455
1	1602	4456
1	1607	4457
1	1610	4458
1	1618	4459
1	1620	4460
1	1615	4461
1	1621	4462
1	1628	4463
1	1634	4464
1	1635	4465
1	1634	4466
1	1633	4467
1	1625	4468
1	1616	4469
1	1607	4470
1	1604	4471
1	1595	4472
1	1589	4473
1	1583	4474
1	1582	4475
1	1584	4476
1	1602	4477
1	1615	4478
1	1626	4479
1	1638	4480
1	1647	4481
1	1662	4482
1	1683	4483
1	1701	4484
1	1730	4485
1	1765	4486
1	1800	4487
1	1841	4488
1	1869	4489
1	1899	4490
1	1931	4491
1	1974	4492
1	2012	4493
1	2052	4494
1	2092	4495
1	2130	4496
1	2162	4497
1	2197	4498
1	2238	4499
1	2275	4500
1	2299	4501
1	2312	4502
1	2317	4503
1	2320	4504
1	2314	4505
1	2299	4506
1	2286	4507
1	2262	4508
1	2230	4509
1	2183	4510
1	2138	4511
1	2100	4512
1	2058	4513
1	2019	4514
1	1976	4515
1	1931	4516
1	1864	4517
1	1800	4518
1	1737	4519
1	1673	4520
1	1611	4521
1	1566	4522
1	1526	4523
1	1489	4524
1	1466	4525
1	1458	4526
1	1456	4527
1	1461	4528
1	1469	4529
1	1479	4530
1	1490	4531
1	1503	4532
1	1508	4533
1	1512	4534
1	1512	4535
1	1510	4536
1	1505	4537
1	1503	4538
1	1503	4539
1	1512	4540
1	1531	4541
1	1553	4542
1	1566	4543
1	1580	4544
1	1589	4545
1	1594	4546
1	1592	4547
1	1583	4548
1	1579	4549
1	1571	4550
1	1560	4551
1	1553	4552
1	1539	4553
1	1530	4554
1	1536	4555
1	1549	4556
1	1569	4557
1	1592	4558
1	1613	4559
1	1634	4560
1	1646	4561
1	1643	4562
1	1638	4563
1	1631	4564
1	1619	4565
1	1610	4566
1	1612	4567
1	1621	4568
1	1638	4569
1	1657	4570
1	1674	4571
1	1688	4572
1	1697	4573
1	1699	4574
1	1693	4575
1	1673	4576
1	1644	4577
1	1621	4578
1	1607	4579
1	1598	4580
1	1590	4581
1	1593	4582
1	1589	4583
1	1584	4584
1	1582	4585
1	1580	4586
1	1579	4587
1	1581	4588
1	1592	4589
1	1589	4590
1	1590	4591
1	1593	4592
1	1597	4593
1	1606	4594
1	1617	4595
1	1629	4596
1	1636	4597
1	1633	4598
1	1624	4599
1	1613	4600
1	1604	4601
1	1602	4602
1	1607	4603
1	1620	4604
1	1635	4605
1	1654	4606
1	1660	4607
1	1670	4608
1	1671	4609
1	1661	4610
1	1643	4611
1	1620	4612
1	1592	4613
1	1573	4614
1	1560	4615
1	1557	4616
1	1563	4617
1	1571	4618
1	1588	4619
1	1607	4620
1	1625	4621
1	1639	4622
1	1647	4623
1	1654	4624
1	1659	4625
1	1660	4626
1	1664	4627
1	1661	4628
1	1661	4629
1	1654	4630
1	1645	4631
1	1637	4632
1	1619	4633
1	1607	4634
1	1599	4635
1	1597	4636
1	1599	4637
1	1603	4638
1	1605	4639
1	1607	4640
1	1610	4641
1	1619	4642
1	1626	4643
1	1632	4644
1	1633	4645
1	1639	4646
1	1641	4647
1	1644	4648
1	1647	4649
1	1652	4650
1	1651	4651
1	1648	4652
1	1651	4653
1	1660	4654
1	1662	4655
1	1670	4656
1	1686	4657
1	1690	4658
1	1692	4659
1	1692	4660
1	1700	4661
1	1713	4662
1	1725	4663
1	1731	4664
1	1726	4665
1	1713	4666
1	1690	4667
1	1665	4668
1	1643	4669
1	1626	4670
1	1612	4671
1	1616	4672
1	1621	4673
1	1630	4674
1	1634	4675
1	1647	4676
1	1661	4677
1	1683	4678
1	1697	4679
1	1712	4680
1	1728	4681
1	1737	4682
1	1744	4683
1	1753	4684
1	1763	4685
1	1766	4686
1	1778	4687
1	1783	4688
1	1783	4689
1	1778	4690
1	1780	4691
1	1775	4692
1	1764	4693
1	1752	4694
1	1738	4695
1	1726	4696
1	1712	4697
1	1708	4698
1	1710	4699
1	1712	4700
1	1708	4701
1	1710	4702
1	1700	4703
1	1688	4704
1	1679	4705
1	1671	4706
1	1674	4707
1	1683	4708
1	1690	4709
1	1698	4710
1	1707	4711
1	1708	4712
1	1706	4713
1	1701	4714
1	1695	4715
1	1686	4716
1	1680	4717
1	1670	4718
1	1660	4719
1	1654	4720
1	1654	4721
1	1659	4722
1	1672	4723
1	1689	4724
1	1710	4725
1	1718	4726
1	1715	4727
1	1712	4728
1	1702	4729
1	1695	4730
1	1683	4731
1	1662	4732
1	1659	4733
1	1646	4734
1	1631	4735
1	1634	4736
1	1633	4737
1	1638	4738
1	1647	4739
1	1660	4740
1	1673	4741
1	1686	4742
1	1700	4743
1	1709	4744
1	1711	4745
1	1710	4746
1	1705	4747
1	1698	4748
1	1688	4749
1	1678	4750
1	1674	4751
1	1665	4752
1	1657	4753
1	1648	4754
1	1647	4755
1	1647	4756
1	1649	4757
1	1660	4758
1	1671	4759
1	1645	4780
1	1664	4781
1	1683	4782
1	1694	4783
1	1705	4784
1	1708	4785
1	1701	4786
1	1680	4787
1	1652	4788
1	1629	4789
1	1607	4790
1	1584	4791
1	1569	4792
1	1550	4793
1	1530	4794
1	1518	4795
1	1515	4796
1	1521	4797
1	1540	4798
1	1570	4799
1	1603	4800
1	1626	4801
1	1635	4802
1	1638	4803
1	1635	4804
1	1633	4805
1	1622	4806
1	1610	4807
1	1593	4808
1	1571	4809
1	1555	4810
1	1544	4811
1	1538	4812
1	1536	4813
1	1535	4814
1	1534	4815
1	1537	4816
1	1539	4817
1	1555	4818
1	1571	4819
1	1682	4760
1	1681	4761
1	1679	4762
1	1663	4763
1	1642	4764
1	1621	4765
1	1602	4766
1	1587	4767
1	1579	4768
1	1575	4769
1	1571	4770
1	1575	4771
1	1575	4772
1	1579	4773
1	1579	4774
1	1577	4775
1	1581	4776
1	1594	4777
1	1607	4778
1	1623	4779
1	1590	4820
1	1607	4821
1	1634	4822
1	1647	4823
1	1649	4824
1	1649	4825
1	1650	4826
1	1647	4827
1	1643	4828
1	1634	4829
1	1620	4830
1	1611	4831
1	1605	4832
1	1598	4833
1	1589	4834
1	1589	4835
1	1591	4836
1	1594	4837
1	1607	4838
1	1618	4839
1	1633	4840
1	1649	4841
1	1670	4842
1	1682	4843
1	1685	4844
1	1682	4845
1	1672	4846
1	1655	4847
1	1638	4848
1	1616	4849
1	1592	4850
1	1564	4851
1	1550	4852
1	1529	4853
1	1518	4854
1	1517	4855
1	1525	4856
1	1538	4857
1	1554	4858
1	1571	4859
1	1582	4860
1	1587	4861
1	1581	4862
1	1582	4863
1	1585	4864
1	1587	4865
1	1585	4866
1	1584	4867
1	1583	4868
1	1587	4869
1	1593	4870
1	1594	4871
1	1607	4872
1	1621	4873
1	1639	4874
1	1656	4875
1	1670	4876
1	1671	4877
1	1665	4878
1	1659	4879
1	1654	4880
1	1646	4881
1	1651	4882
1	1657	4883
1	1661	4884
1	1670	4885
1	1672	4886
1	1668	4887
1	1660	4888
1	1648	4889
1	1642	4890
1	1639	4891
1	1636	4892
1	1641	4893
1	1644	4894
1	1643	4895
1	1637	4896
1	1641	4897
1	1646	4898
1	1654	4899
1	1661	4900
1	1664	4901
1	1671	4902
1	1685	4903
1	1692	4904
1	1695	4905
1	1690	4906
1	1668	4907
1	1652	4908
1	1634	4909
1	1620	4910
1	1607	4911
1	1606	4912
1	1610	4913
1	1618	4914
1	1629	4915
1	1635	4916
1	1637	4917
1	1634	4918
1	1628	4919
1	1616	4920
1	1606	4921
1	1593	4922
1	1581	4923
1	1564	4924
1	1548	4925
1	1538	4926
1	1542	4927
1	1550	4928
1	1557	4929
1	1564	4930
1	1568	4931
1	1581	4932
1	1593	4933
1	1612	4934
1	1638	4935
1	1662	4936
1	1679	4937
1	1685	4938
1	1684	4939
1	1683	4940
1	1690	4941
1	1697	4942
1	1710	4943
1	1720	4944
1	1733	4945
1	1751	4946
1	1751	4947
1	1738	4948
1	1712	4949
1	1683	4950
1	1659	4951
1	1634	4952
1	1623	4953
1	1615	4954
1	1616	4955
1	1625	4956
1	1635	4957
1	1638	4958
1	1642	4959
1	1638	4960
1	1638	4961
1	1638	4962
1	1638	4963
1	1633	4964
1	1613	4965
1	1599	4966
1	1582	4967
1	1576	4968
1	1565	4969
1	1549	4970
1	1531	4971
1	1528	4972
1	1520	4973
1	1517	4974
1	1525	4975
1	1535	4976
1	1546	4977
1	1556	4978
1	1566	4979
1	1575	4980
1	1582	4981
1	1584	4982
1	1583	4983
1	1582	4984
1	1581	4985
1	1582	4986
1	1596	4987
1	1611	4988
1	1633	4989
1	1647	4990
1	1661	4991
1	1680	4992
1	1695	4993
1	1711	4994
1	1721	4995
1	1723	4996
1	1710	4997
1	1699	4998
1	1686	4999
1	1672	5000
1	1659	5001
1	1655	5002
1	1647	5003
1	1646	5004
1	1649	5005
1	1657	5006
1	1661	5007
1	1664	5008
1	1665	5009
1	1665	5010
1	1665	5011
1	1647	5012
1	1624	5013
1	1599	5014
1	1581	5015
1	1566	5016
1	1566	5017
1	1571	5018
1	1575	5019
1	1583	5020
1	1599	5021
1	1616	5022
1	1634	5023
1	1643	5024
1	1643	5025
1	1646	5026
1	1638	5027
1	1629	5028
1	1609	5029
1	1589	5030
1	1572	5031
1	1559	5032
1	1561	5033
1	1564	5034
1	1567	5035
1	1575	5036
1	1587	5037
1	1589	5038
1	1602	5039
1	1607	5040
1	1608	5041
1	1615	5042
1	1631	5043
1	1651	5044
1	1678	5045
1	1706	5046
1	1737	5047
1	1764	5048
1	1778	5049
1	1782	5050
1	1780	5051
1	1765	5052
1	1748	5053
1	1730	5054
1	1712	5055
1	1687	5056
1	1661	5057
1	1638	5058
1	1612	5059
1	1597	5060
1	1595	5061
1	1614	5062
1	1629	5063
1	1639	5064
1	1648	5065
1	1652	5066
1	1652	5067
1	1651	5068
1	1647	5069
1	1644	5070
1	1638	5071
1	1622	5072
1	1617	5073
1	1620	5074
1	1633	5075
1	1638	5076
1	1655	5077
1	1667	5078
1	1681	5079
1	1690	5080
1	1693	5081
1	1692	5082
1	1683	5083
1	1668	5084
1	1654	5085
1	1634	5086
1	1611	5087
1	1597	5088
1	1585	5089
1	1581	5090
1	1584	5091
1	1605	5092
1	1616	5093
1	1632	5094
1	1643	5095
1	1656	5096
1	1662	5097
1	1668	5098
1	1670	5099
1	1672	5100
1	1666	5101
1	1660	5102
1	1651	5103
1	1643	5104
1	1636	5105
1	1629	5106
1	1618	5107
1	1599	5108
1	1581	5109
1	1563	5110
1	1552	5111
1	1546	5112
1	1553	5113
1	1561	5114
1	1569	5115
1	1573	5116
1	1571	5117
1	1579	5118
1	1590	5119
1	1602	5120
1	1611	5121
1	1625	5122
1	1629	5123
1	1626	5124
1	1625	5125
1	1629	5126
1	1633	5127
1	1634	5128
1	1634	5129
1	1629	5130
1	1622	5131
1	1613	5132
1	1604	5133
1	1584	5134
1	1569	5135
1	1554	5136
1	1530	5137
1	1525	5138
1	1517	5139
1	1517	5140
1	1530	5141
1	1546	5142
1	1561	5143
1	1568	5144
1	1571	5145
1	1580	5146
1	1593	5147
1	1607	5148
1	1623	5149
1	1636	5150
1	1647	5151
1	1665	5152
1	1678	5153
1	1682	5154
1	1683	5155
1	1678	5156
1	1661	5157
1	1636	5158
1	1606	5159
1	1571	5160
1	1539	5161
1	1503	5162
1	1487	5163
1	1486	5164
1	1493	5165
1	1507	5166
1	1535	5167
1	1557	5168
1	1582	5169
1	1607	5170
1	1644	5171
1	1686	5172
1	1730	5173
1	1783	5174
1	1843	5175
1	1896	5176
1	1940	5177
1	1971	5178
1	1993	5179
1	2001	5180
1	2005	5181
1	2008	5182
1	2002	5183
1	2003	5184
1	2015	5185
1	2037	5186
1	2070	5187
1	2106	5188
1	2148	5189
1	2191	5190
1	2237	5191
1	2275	5192
1	2314	5193
1	2335	5194
1	2340	5195
1	2327	5196
1	2314	5197
1	2287	5198
1	2250	5199
1	2201	5200
1	2147	5201
1	2080	5202
1	2013	5203
1	1939	5204
1	1865	5205
1	1787	5206
1	1700	5207
1	1621	5208
1	1543	5209
1	1479	5210
1	1433	5211
1	1400	5212
1	1369	5213
1	1350	5214
1	1356	5215
1	1372	5216
1	1394	5217
1	1407	5218
1	1424	5219
1	1443	5220
1	1465	5221
1	1486	5222
1	1508	5223
1	1539	5224
1	1559	5225
1	1575	5226
1	1594	5227
1	1617	5228
1	1643	5229
1	1667	5230
1	1691	5231
1	1712	5232
1	1723	5233
1	1727	5234
1	1712	5235
1	1688	5236
1	1659	5237
1	1629	5238
1	1607	5239
1	1597	5240
1	1587	5241
1	1582	5242
1	1581	5243
1	1573	5244
1	1564	5245
1	1560	5246
1	1574	5247
1	1587	5248
1	1602	5249
1	1611	5250
1	1613	5251
1	1616	5252
1	1624	5253
1	1634	5254
1	1647	5255
1	1660	5256
1	1669	5257
1	1667	5258
1	1661	5259
1	1652	5260
1	1639	5261
1	1629	5262
1	1619	5263
1	1607	5264
1	1594	5265
1	1587	5266
1	1580	5267
1	1580	5268
1	1585	5269
1	1593	5270
1	1603	5271
1	1621	5272
1	1634	5273
1	1649	5274
1	1662	5275
1	1675	5276
1	1685	5277
1	1688	5278
1	1687	5279
1	1682	5280
1	1670	5281
1	1656	5282
1	1646	5283
1	1636	5284
1	1628	5285
1	1620	5286
1	1621	5287
1	1621	5288
1	1628	5289
1	1634	5290
1	1640	5291
1	1647	5292
1	1660	5293
1	1670	5294
1	1677	5295
1	1686	5296
1	1691	5297
1	1695	5298
1	1689	5299
1	1683	5300
1	1672	5301
1	1672	5302
1	1669	5303
1	1671	5304
1	1671	5305
1	1670	5306
1	1670	5307
1	1671	5308
1	1679	5309
1	1693	5310
1	1703	5311
1	1699	5312
1	1695	5313
1	1686	5314
1	1674	5315
1	1660	5316
1	1660	5317
1	1656	5318
1	1647	5319
1	1642	5320
1	1643	5321
1	1658	5322
1	1674	5323
1	1695	5324
1	1712	5325
1	1715	5326
1	1708	5327
1	1697	5328
1	1682	5329
1	1669	5330
1	1660	5331
1	1660	5332
1	1674	5333
1	1683	5334
1	1695	5335
1	1713	5336
1	1715	5337
1	1716	5338
1	1716	5339
1	1723	5340
1	1728	5341
1	1733	5342
1	1731	5343
1	1718	5344
1	1698	5345
1	1671	5346
1	1643	5347
1	1621	5348
1	1609	5349
1	1611	5350
1	1629	5351
1	1644	5352
1	1661	5353
1	1686	5354
1	1706	5355
1	1727	5356
1	1746	5357
1	1760	5358
1	1770	5359
1	1773	5360
1	1770	5361
1	1776	5362
1	1778	5363
1	1782	5364
1	1786	5365
1	1783	5366
1	1783	5367
1	1790	5368
1	1791	5369
1	1791	5370
1	1783	5371
1	1764	5372
1	1751	5373
1	1741	5374
1	1737	5375
1	1736	5376
1	1740	5377
1	1739	5378
1	1737	5379
1	1731	5380
1	1721	5381
1	1712	5382
1	1703	5383
1	1699	5384
1	1704	5385
1	1713	5386
1	1722	5387
1	1734	5388
1	1744	5389
1	1749	5390
1	1749	5391
1	1751	5392
1	1742	5393
1	1737	5394
1	1729	5395
1	1723	5396
1	1721	5397
1	1728	5398
1	1744	5399
1	1764	5400
1	1778	5401
1	1781	5402
1	1783	5403
1	1778	5404
1	1764	5405
1	1747	5406
1	1730	5407
1	1707	5408
1	1690	5409
1	1684	5410
1	1683	5411
1	1688	5412
1	1700	5413
1	1712	5414
1	1729	5415
1	1738	5416
1	1738	5417
1	1744	5418
1	1749	5419
1	1748	5420
1	1744	5421
1	1743	5422
1	1733	5423
1	1721	5424
1	1706	5425
1	1695	5426
1	1684	5427
1	1667	5428
1	1651	5429
1	1647	5430
1	1642	5431
1	1643	5432
1	1643	5433
1	1647	5434
1	1658	5435
1	1670	5436
1	1684	5437
1	1697	5438
1	1711	5439
1	1690	5460
1	1692	5461
1	1687	5462
1	1687	5463
1	1678	5464
1	1667	5465
1	1660	5466
1	1660	5467
1	1660	5468
1	1656	5469
1	1656	5470
1	1658	5471
1	1660	5472
1	1662	5473
1	1665	5474
1	1664	5475
1	1660	5476
1	1644	5477
1	1635	5478
1	1629	5479
1	1615	5480
1	1603	5481
1	1594	5482
1	1587	5483
1	1593	5484
1	1594	5485
1	1597	5486
1	1605	5487
1	1616	5488
1	1628	5489
1	1638	5490
1	1647	5491
1	1647	5492
1	1646	5493
1	1638	5494
1	1634	5495
1	1634	5496
1	1634	5497
1	1628	5498
1	1612	5499
1	1726	5440
1	1746	5441
1	1752	5442
1	1754	5443
1	1742	5444
1	1718	5445
1	1688	5446
1	1649	5447
1	1626	5448
1	1598	5449
1	1572	5450
1	1553	5451
1	1553	5452
1	1555	5453
1	1575	5454
1	1602	5455
1	1632	5456
1	1659	5457
1	1678	5458
1	1686	5459
1	1595	5500
1	1579	5501
1	1566	5502
1	1562	5503
1	1578	5504
1	1593	5505
1	1615	5506
1	1631	5507
1	1644	5508
1	1657	5509
1	1667	5510
1	1677	5511
1	1687	5512
1	1699	5513
1	1712	5514
1	1720	5515
1	1719	5516
1	1713	5517
1	1699	5518
1	1677	5519
1	1649	5520
1	1631	5521
1	1613	5522
1	1607	5523
1	1603	5524
1	1606	5525
1	1608	5526
1	1620	5527
1	1620	5528
1	1611	5529
1	1607	5530
1	1607	5531
1	1607	5532
1	1607	5533
1	1604	5534
1	1602	5535
1	1602	5536
1	1606	5537
1	1619	5538
1	1637	5539
1	1660	5540
1	1682	5541
1	1688	5542
1	1691	5543
1	1685	5544
1	1677	5545
1	1670	5546
1	1667	5547
1	1659	5548
1	1648	5549
1	1638	5550
1	1634	5551
1	1620	5552
1	1612	5553
1	1611	5554
1	1613	5555
1	1611	5556
1	1608	5557
1	1598	5558
1	1593	5559
1	1641	5580
1	1680	5581
1	1708	5582
1	1724	5583
1	1737	5584
1	1738	5585
1	1733	5586
1	1737	5587
1	1738	5588
1	1737	5589
1	1738	5590
1	1742	5591
1	1746	5592
1	1747	5593
1	1739	5594
1	1723	5595
1	1706	5596
1	1686	5597
1	1681	5598
1	1676	5599
1	1595	5560
1	1603	5561
1	1618	5562
1	1635	5563
1	1660	5564
1	1683	5565
1	1701	5566
1	1706	5567
1	1702	5568
1	1695	5569
1	1676	5570
1	1645	5571
1	1615	5572
1	1582	5573
1	1555	5574
1	1536	5575
1	1529	5576
1	1535	5577
1	1561	5578
1	1602	5579
1	1663	5600
1	1656	5601
1	1654	5602
1	1647	5603
1	1647	5604
1	1647	5605
1	1656	5606
1	1664	5607
1	1678	5608
1	1687	5609
1	1692	5610
1	1697	5611
1	1697	5612
1	1700	5613
1	1702	5614
1	1699	5615
1	1691	5616
1	1690	5617
1	1691	5618
1	1688	5619
1	1685	5620
1	1674	5621
1	1662	5622
1	1652	5623
1	1638	5624
1	1629	5625
1	1629	5626
1	1629	5627
1	1633	5628
1	1634	5629
1	1634	5630
1	1634	5631
1	1634	5632
1	1638	5633
1	1634	5634
1	1642	5635
1	1658	5636
1	1661	5637
1	1671	5638
1	1677	5639
1	1680	5640
1	1687	5641
1	1688	5642
1	1682	5643
1	1670	5644
1	1658	5645
1	1638	5646
1	1623	5647
1	1607	5648
1	1595	5649
1	1587	5650
1	1580	5651
1	1581	5652
1	1588	5653
1	1598	5654
1	1607	5655
1	1613	5656
1	1631	5657
1	1648	5658
1	1670	5659
1	1686	5660
1	1697	5661
1	1708	5662
1	1703	5663
1	1697	5664
1	1688	5665
1	1686	5666
1	1679	5667
1	1674	5668
1	1670	5669
1	1660	5670
1	1657	5671
1	1656	5672
1	1661	5673
1	1669	5674
1	1669	5675
1	1665	5676
1	1680	5677
1	1697	5678
1	1719	5679
1	1746	5680
1	1764	5681
1	1782	5682
1	1788	5683
1	1787	5684
1	1779	5685
1	1764	5686
1	1738	5687
1	1712	5688
1	1679	5689
1	1646	5690
1	1619	5691
1	1608	5692
1	1608	5693
1	1612	5694
1	1620	5695
1	1626	5696
1	1634	5697
1	1635	5698
1	1644	5699
1	1660	5700
1	1677	5701
1	1690	5702
1	1705	5703
1	1712	5704
1	1714	5705
1	1707	5706
1	1701	5707
1	1686	5708
1	1665	5709
1	1652	5710
1	1646	5711
1	1646	5712
1	1651	5713
1	1660	5714
1	1672	5715
1	1688	5716
1	1695	5717
1	1698	5718
1	1700	5719
1	1705	5720
1	1711	5721
1	1723	5722
1	1729	5723
1	1728	5724
1	1718	5725
1	1696	5726
1	1667	5727
1	1638	5728
1	1610	5729
1	1582	5730
1	1555	5731
1	1530	5732
1	1512	5733
1	1501	5734
1	1507	5735
1	1524	5736
1	1549	5737
1	1577	5738
1	1599	5739
1	1628	5740
1	1658	5741
1	1678	5742
1	1690	5743
1	1701	5744
1	1705	5745
1	1700	5746
1	1679	5747
1	1667	5748
1	1659	5749
1	1649	5750
1	1638	5751
1	1629	5752
1	1625	5753
1	1621	5754
1	1616	5755
1	1608	5756
1	1607	5757
1	1607	5758
1	1610	5759
1	1607	5760
1	1597	5761
1	1582	5762
1	1580	5763
1	1578	5764
1	1574	5765
1	1577	5766
1	1584	5767
1	1582	5768
1	1581	5769
1	1579	5770
1	1573	5771
1	1571	5772
1	1570	5773
1	1571	5774
1	1580	5775
1	1595	5776
1	1610	5777
1	1625	5778
1	1635	5779
1	1639	5780
1	1643	5781
1	1652	5782
1	1652	5783
1	1649	5784
1	1643	5785
1	1621	5786
1	1598	5787
1	1577	5788
1	1560	5789
1	1544	5790
1	1529	5791
1	1526	5792
1	1531	5793
1	1553	5794
1	1574	5795
1	1597	5796
1	1620	5797
1	1631	5798
1	1634	5799
1	1641	5800
1	1643	5801
1	1642	5802
1	1637	5803
1	1634	5804
1	1634	5805
1	1638	5806
1	1647	5807
1	1664	5808
1	1689	5809
1	1715	5810
1	1749	5811
1	1791	5812
1	1818	5813
1	1848	5814
1	1878	5815
1	1909	5816
1	1943	5817
1	1973	5818
1	2001	5819
1	2032	5820
1	2057	5821
1	2071	5822
1	2081	5823
1	2099	5824
1	2113	5825
1	2131	5826
1	2156	5827
1	2165	5828
1	2165	5829
1	2160	5830
1	2145	5831
1	2133	5832
1	2106	5833
1	2079	5834
1	2052	5835
1	2022	5836
1	1985	5837
1	1946	5838
1	1898	5839
1	1589	5880
1	1583	5881
1	1574	5882
1	1567	5883
1	1555	5884
1	1542	5885
1	1530	5886
1	1535	5887
1	1542	5888
1	1551	5889
1	1555	5890
1	1556	5891
1	1557	5892
1	1560	5893
1	1572	5894
1	1584	5895
1	1602	5896
1	1615	5897
1	1620	5898
1	1621	5899
1	1565	5860
1	1586	5861
1	1603	5862
1	1611	5863
1	1619	5864
1	1623	5865
1	1621	5866
1	1611	5867
1	1607	5868
1	1600	5869
1	1597	5870
1	1593	5871
1	1594	5872
1	1590	5873
1	1587	5874
1	1592	5875
1	1598	5876
1	1605	5877
1	1602	5878
1	1595	5879
1	1842	5840
1	1773	5841
1	1707	5842
1	1642	5843
1	1585	5844
1	1546	5845
1	1520	5846
1	1499	5847
1	1481	5848
1	1464	5849
1	1448	5850
1	1433	5851
1	1410	5852
1	1400	5853
1	1402	5854
1	1416	5855
1	1437	5856
1	1476	5857
1	1504	5858
1	1537	5859
1	1611	5900
1	1604	5901
1	1603	5902
1	1598	5903
1	1606	5904
1	1620	5905
1	1636	5906
1	1655	5907
1	1664	5908
1	1665	5909
1	1660	5910
1	1647	5911
1	1629	5912
1	1618	5913
1	1610	5914
1	1611	5915
1	1618	5916
1	1632	5917
1	1629	5918
1	1616	5919
1	1597	5920
1	1580	5921
1	1570	5922
1	1566	5923
1	1561	5924
1	1554	5925
1	1547	5926
1	1534	5927
1	1531	5928
1	1535	5929
1	1539	5930
1	1538	5931
1	1539	5932
1	1555	5933
1	1571	5934
1	1581	5935
1	1605	5936
1	1612	5937
1	1626	5938
1	1647	5939
1	1661	5940
1	1673	5941
1	1680	5942
1	1674	5943
1	1660	5944
1	1646	5945
1	1625	5946
1	1610	5947
1	1605	5948
1	1602	5949
1	1611	5950
1	1626	5951
1	1638	5952
1	1647	5953
1	1655	5954
1	1656	5955
1	1653	5956
1	1634	5957
1	1620	5958
1	1609	5959
1	1600	5960
1	1590	5961
1	1586	5962
1	1581	5963
1	1577	5964
1	1577	5965
1	1582	5966
1	1597	5967
1	1613	5968
1	1634	5969
1	1661	5970
1	1687	5971
1	1711	5972
1	1726	5973
1	1738	5974
1	1744	5975
1	1751	5976
1	1760	5977
1	1757	5978
1	1755	5979
1	1755	5980
1	1751	5981
1	1740	5982
1	1738	5983
1	1738	5984
1	1738	5985
1	1731	5986
1	1702	5987
1	1685	5988
1	1665	5989
1	1647	5990
1	1632	5991
1	1624	5992
1	1612	5993
1	1608	5994
1	1618	5995
1	1634	5996
1	1656	5997
1	1674	5998
1	1693	5999
1	1703	6000
1	1712	6001
1	1715	6002
1	1723	6003
1	1729	6004
1	1728	6005
1	1717	6006
1	1712	6007
1	1700	6008
1	1686	6009
1	1674	6010
1	1675	6011
1	1688	6012
1	1708	6013
1	1724	6014
1	1741	6015
1	1755	6016
1	1760	6017
1	1751	6018
1	1733	6019
1	1711	6020
1	1686	6021
1	1677	6022
1	1660	6023
1	1647	6024
1	1636	6025
1	1636	6026
1	1641	6027
1	1656	6028
1	1674	6029
1	1692	6030
1	1699	6031
1	1714	6032
1	1734	6033
1	1747	6034
1	1754	6035
1	1751	6036
1	1738	6037
1	1734	6038
1	1724	6039
1	1718	6040
1	1704	6041
1	1695	6042
1	1682	6043
1	1670	6044
1	1663	6045
1	1662	6046
1	1660	6047
1	1667	6048
1	1682	6049
1	1691	6050
1	1697	6051
1	1707	6052
1	1705	6053
1	1703	6054
1	1699	6055
1	1690	6056
1	1674	6057
1	1659	6058
1	1650	6059
1	1700	6080
1	1688	6081
1	1683	6082
1	1674	6083
1	1660	6084
1	1648	6085
1	1634	6086
1	1619	6087
1	1598	6088
1	1580	6089
1	1562	6090
1	1553	6091
1	1550	6092
1	1552	6093
1	1554	6094
1	1555	6095
1	1563	6096
1	1581	6097
1	1595	6098
1	1612	6099
1	1643	6060
1	1639	6061
1	1636	6062
1	1638	6063
1	1647	6064
1	1654	6065
1	1656	6066
1	1660	6067
1	1655	6068
1	1652	6069
1	1649	6070
1	1648	6071
1	1647	6072
1	1648	6073
1	1657	6074
1	1672	6075
1	1692	6076
1	1703	6077
1	1705	6078
1	1705	6079
1	1637	6100
1	1660	6101
1	1671	6102
1	1679	6103
1	1686	6104
1	1684	6105
1	1680	6106
1	1672	6107
1	1664	6108
1	1648	6109
1	1626	6110
1	1605	6111
1	1589	6112
1	1569	6113
1	1547	6114
1	1529	6115
1	1503	6116
1	1487	6117
1	1476	6118
1	1476	6119
1	1489	6120
1	1513	6121
1	1540	6122
1	1556	6123
1	1579	6124
1	1593	6125
1	1599	6126
1	1608	6127
1	1608	6128
1	1607	6129
1	1613	6130
1	1620	6131
1	1616	6132
1	1618	6133
1	1618	6134
1	1616	6135
1	1609	6136
1	1607	6137
1	1599	6138
1	1593	6139
1	1592	6140
1	1602	6141
1	1619	6142
1	1634	6143
1	1643	6144
1	1644	6145
1	1649	6146
1	1646	6147
1	1634	6148
1	1626	6149
1	1613	6150
1	1603	6151
1	1581	6152
1	1563	6153
1	1543	6154
1	1523	6155
1	1503	6156
1	1495	6157
1	1489	6158
1	1494	6159
1	1511	6160
1	1533	6161
1	1549	6162
1	1556	6163
1	1566	6164
1	1571	6165
1	1581	6166
1	1587	6167
1	1594	6168
1	1604	6169
1	1609	6170
1	1617	6171
1	1630	6172
1	1632	6173
1	1633	6174
1	1635	6175
1	1641	6176
1	1644	6177
1	1647	6178
1	1652	6179
1	1608	6200
1	1609	6201
1	1624	6202
1	1629	6203
1	1634	6204
1	1632	6205
1	1625	6206
1	1618	6207
1	1611	6208
1	1608	6209
1	1607	6210
1	1605	6211
1	1594	6212
1	1592	6213
1	1587	6214
1	1593	6215
1	1602	6216
1	1618	6217
1	1626	6218
1	1633	6219
1	1658	6180
1	1660	6181
1	1652	6182
1	1642	6183
1	1629	6184
1	1611	6185
1	1599	6186
1	1586	6187
1	1574	6188
1	1576	6189
1	1583	6190
1	1602	6191
1	1620	6192
1	1632	6193
1	1634	6194
1	1634	6195
1	1633	6196
1	1621	6197
1	1616	6198
1	1611	6199
1	1641	6240
1	1631	6241
1	1613	6242
1	1602	6243
1	1590	6244
1	1580	6245
1	1570	6246
1	1566	6247
1	1574	6248
1	1587	6249
1	1605	6250
1	1609	6251
1	1613	6252
1	1616	6253
1	1621	6254
1	1634	6255
1	1647	6256
1	1652	6257
1	1652	6258
1	1647	6259
1	1631	6220
1	1625	6221
1	1621	6222
1	1618	6223
1	1609	6224
1	1598	6225
1	1589	6226
1	1584	6227
1	1589	6228
1	1594	6229
1	1603	6230
1	1609	6231
1	1620	6232
1	1632	6233
1	1634	6234
1	1631	6235
1	1641	6236
1	1644	6237
1	1647	6238
1	1646	6239
1	1643	6260
1	1636	6261
1	1633	6262
1	1616	6263
1	1603	6264
1	1592	6265
1	1581	6266
1	1575	6267
1	1568	6268
1	1566	6269
1	1565	6270
1	1562	6271
1	1555	6272
1	1554	6273
1	1560	6274
1	1578	6275
1	1602	6276
1	1629	6277
1	1647	6278
1	1661	6279
1	1667	6280
1	1659	6281
1	1639	6282
1	1618	6283
1	1607	6284
1	1603	6285
1	1596	6286
1	1592	6287
1	1594	6288
1	1606	6289
1	1615	6290
1	1632	6291
1	1652	6292
1	1665	6293
1	1673	6294
1	1670	6295
1	1658	6296
1	1636	6297
1	1610	6298
1	1583	6299
1	1557	6300
1	1538	6301
1	1508	6302
1	1494	6303
1	1485	6304
1	1481	6305
1	1479	6306
1	1486	6307
1	1490	6308
1	1492	6309
1	1499	6310
1	1512	6311
1	1531	6312
1	1557	6313
1	1583	6314
1	1607	6315
1	1624	6316
1	1634	6317
1	1641	6318
1	1647	6319
1	1647	6320
1	1647	6321
1	1647	6322
1	1644	6323
1	1634	6324
1	1625	6325
1	1610	6326
1	1605	6327
1	1597	6328
1	1592	6329
1	1586	6330
1	1577	6331
1	1576	6332
1	1574	6333
1	1567	6334
1	1557	6335
1	1543	6336
1	1528	6337
1	1511	6338
1	1499	6339
1	1498	6340
1	1513	6341
1	1533	6342
1	1557	6343
1	1581	6344
1	1605	6345
1	1632	6346
1	1655	6347
1	1662	6348
1	1667	6349
1	1661	6350
1	1654	6351
1	1652	6352
1	1647	6353
1	1647	6354
1	1652	6355
1	1660	6356
1	1662	6357
1	1657	6358
1	1647	6359
1	1638	6360
1	1634	6361
1	1618	6362
1	1610	6363
1	1602	6364
1	1598	6365
1	1602	6366
1	1612	6367
1	1625	6368
1	1638	6369
1	1643	6370
1	1638	6371
1	1634	6372
1	1634	6373
1	1637	6374
1	1638	6375
1	1636	6376
1	1629	6377
1	1619	6378
1	1611	6379
1	1607	6380
1	1607	6381
1	1611	6382
1	1610	6383
1	1611	6384
1	1616	6385
1	1616	6386
1	1620	6387
1	1612	6388
1	1623	6389
1	1637	6390
1	1647	6391
1	1649	6392
1	1645	6393
1	1634	6394
1	1629	6395
1	1620	6396
1	1615	6397
1	1607	6398
1	1589	6399
1	1567	6400
1	1547	6401
1	1529	6402
1	1517	6403
1	1507	6404
1	1503	6405
1	1508	6406
1	1523	6407
1	1540	6408
1	1562	6409
1	1581	6410
1	1593	6411
1	1606	6412
1	1609	6413
1	1610	6414
1	1607	6415
1	1597	6416
1	1581	6417
1	1557	6418
1	1543	6419
1	1535	6420
1	1536	6421
1	1539	6422
1	1546	6423
1	1559	6424
1	1571	6425
1	1573	6426
1	1577	6427
1	1572	6428
1	1574	6429
1	1583	6430
1	1607	6431
1	1633	6432
1	1648	6433
1	1667	6434
1	1677	6435
1	1680	6436
1	1672	6437
1	1660	6438
1	1634	6439
1	1611	6440
1	1585	6441
1	1561	6442
1	1543	6443
1	1520	6444
1	1503	6445
1	1497	6446
1	1490	6447
1	1488	6448
1	1486	6449
1	1490	6450
1	1495	6451
1	1492	6452
1	1494	6453
1	1507	6454
1	1533	6455
1	1557	6456
1	1580	6457
1	1586	6458
1	1586	6459
1	1579	6460
1	1564	6461
1	1555	6462
1	1546	6463
1	1539	6464
1	1540	6465
1	1544	6466
1	1549	6467
1	1557	6468
1	1574	6469
1	1589	6470
1	1603	6471
1	1625	6472
1	1644	6473
1	1663	6474
1	1695	6475
1	1733	6476
1	1773	6477
1	1821	6478
1	1868	6479
1	2137	6500
1	2082	6501
1	2027	6502
1	1953	6503
1	1877	6504
1	1796	6505
1	1721	6506
1	1655	6507
1	1595	6508
1	1546	6509
1	1505	6510
1	1479	6511
1	1456	6512
1	1453	6513
1	1458	6514
1	1466	6515
1	1479	6516
1	1501	6517
1	1513	6518
1	1524	6519
1	1904	6480
1	1936	6481
1	1970	6482
1	2000	6483
1	2029	6484
1	2058	6485
1	2081	6486
1	2112	6487
1	2133	6488
1	2152	6489
1	2179	6490
1	2209	6491
1	2237	6492
1	2262	6493
1	2281	6494
1	2289	6495
1	2284	6496
1	2256	6497
1	2222	6498
1	2183	6499
1	1525	6520
1	1521	6521
1	1523	6522
1	1519	6523
1	1517	6524
1	1517	6525
1	1517	6526
1	1512	6527
1	1514	6528
1	1525	6529
1	1530	6530
1	1539	6531
1	1542	6532
1	1554	6533
1	1561	6534
1	1570	6535
1	1582	6536
1	1586	6537
1	1578	6538
1	1567	6539
1	1555	6540
1	1544	6541
1	1536	6542
1	1531	6543
1	1531	6544
1	1537	6545
1	1536	6546
1	1533	6547
1	1526	6548
1	1511	6549
1	1495	6550
1	1487	6551
1	1492	6552
1	1499	6553
1	1514	6554
1	1533	6555
1	1553	6556
1	1555	6557
1	1555	6558
1	1556	6559
1	1555	6560
1	1553	6561
1	1554	6562
1	1556	6563
1	1555	6564
1	1553	6565
1	1556	6566
1	1572	6567
1	1585	6568
1	1597	6569
1	1607	6570
1	1620	6571
1	1625	6572
1	1623	6573
1	1616	6574
1	1606	6575
1	1584	6576
1	1571	6577
1	1554	6578
1	1537	6579
1	1526	6580
1	1520	6581
1	1516	6582
1	1515	6583
1	1521	6584
1	1528	6585
1	1537	6586
1	1542	6587
1	1548	6588
1	1555	6589
1	1558	6590
1	1568	6591
1	1579	6592
1	1579	6593
1	1577	6594
1	1575	6595
1	1573	6596
1	1576	6597
1	1579	6598
1	1584	6599
1	1592	6600
1	1597	6601
1	1599	6602
1	1605	6603
1	1613	6604
1	1625	6605
1	1634	6606
1	1639	6607
1	1634	6608
1	1623	6609
1	1608	6610
1	1596	6611
1	1587	6612
1	1589	6613
1	1594	6614
1	1602	6615
1	1620	6616
1	1629	6617
1	1634	6618
1	1637	6619
1	1626	6620
1	1609	6621
1	1592	6622
1	1567	6623
1	1549	6624
1	1531	6625
1	1528	6626
1	1529	6627
1	1543	6628
1	1558	6629
1	1574	6630
1	1582	6631
1	1594	6632
1	1597	6633
1	1595	6634
1	1594	6635
1	1595	6636
1	1603	6637
1	1608	6638
1	1610	6639
1	1616	6640
1	1633	6641
1	1641	6642
1	1652	6643
1	1658	6644
1	1660	6645
1	1660	6646
1	1650	6647
1	1644	6648
1	1639	6649
1	1641	6650
1	1644	6651
1	1644	6652
1	1647	6653
1	1647	6654
1	1646	6655
1	1643	6656
1	1641	6657
1	1639	6658
1	1647	6659
1	1652	6660
1	1659	6661
1	1660	6662
1	1665	6663
1	1672	6664
1	1682	6665
1	1687	6666
1	1698	6667
1	1699	6668
1	1690	6669
1	1675	6670
1	1659	6671
1	1639	6672
1	1629	6673
1	1618	6674
1	1608	6675
1	1604	6676
1	1600	6677
1	1617	6678
1	1647	6679
1	1683	6680
1	1720	6681
1	1764	6682
1	1796	6683
1	1823	6684
1	1837	6685
1	1834	6686
1	1817	6687
1	1785	6688
1	1738	6689
1	1696	6690
1	1660	6691
1	1636	6692
1	1625	6693
1	1616	6694
1	1619	6695
1	1624	6696
1	1633	6697
1	1647	6698
1	1659	6699
1	1667	6700
1	1679	6701
1	1693	6702
1	1711	6703
1	1725	6704
1	1731	6705
1	1728	6706
1	1712	6707
1	1703	6708
1	1692	6709
1	1675	6710
1	1651	6711
1	1634	6712
1	1615	6713
1	1597	6714
1	1589	6715
1	1592	6716
1	1603	6717
1	1620	6718
1	1635	6719
1	1656	6720
1	1672	6721
1	1683	6722
1	1686	6723
1	1683	6724
1	1683	6725
1	1673	6726
1	1670	6727
1	1657	6728
1	1634	6729
1	1611	6730
1	1597	6731
1	1580	6732
1	1572	6733
1	1568	6734
1	1567	6735
1	1579	6736
1	1595	6737
1	1620	6738
1	1649	6739
1	1677	6740
1	1696	6741
1	1709	6742
1	1709	6743
1	1698	6744
1	1685	6745
1	1673	6746
1	1660	6747
1	1647	6748
1	1634	6749
1	1616	6750
1	1601	6751
1	1576	6752
1	1566	6753
1	1555	6754
1	1543	6755
1	1529	6756
1	1528	6757
1	1529	6758
1	1536	6759
1	1555	6760
1	1581	6761
1	1599	6762
1	1616	6763
1	1630	6764
1	1634	6765
1	1634	6766
1	1622	6767
1	1611	6768
1	1595	6769
1	1581	6770
1	1570	6771
1	1570	6772
1	1567	6773
1	1572	6774
1	1577	6775
1	1584	6776
1	1594	6777
1	1603	6778
1	1610	6779
1	1620	6780
1	1623	6781
1	1611	6782
1	1602	6783
1	1590	6784
1	1580	6785
1	1571	6786
1	1569	6787
1	1580	6788
1	1574	6789
1	1581	6790
1	1590	6791
1	1602	6792
1	1605	6793
1	1602	6794
1	1595	6795
1	1593	6796
1	1584	6797
1	1585	6798
1	1596	6799
1	1610	6800
1	1631	6801
1	1649	6802
1	1656	6803
1	1652	6804
1	1652	6805
1	1644	6806
1	1633	6807
1	1618	6808
1	1599	6809
1	1586	6810
1	1581	6811
1	1579	6812
1	1584	6813
1	1598	6814
1	1611	6815
1	1633	6816
1	1647	6817
1	1662	6818
1	1662	6819
1	1713	6840
1	1706	6841
1	1694	6842
1	1678	6843
1	1658	6844
1	1635	6845
1	1615	6846
1	1598	6847
1	1589	6848
1	1585	6849
1	1591	6850
1	1589	6851
1	1592	6852
1	1596	6853
1	1601	6854
1	1602	6855
1	1605	6856
1	1602	6857
1	1602	6858
1	1600	6859
1	1655	6820
1	1643	6821
1	1634	6822
1	1620	6823
1	1609	6824
1	1597	6825
1	1592	6826
1	1582	6827
1	1584	6828
1	1590	6829
1	1594	6830
1	1607	6831
1	1619	6832
1	1635	6833
1	1648	6834
1	1660	6835
1	1686	6836
1	1700	6837
1	1711	6838
1	1715	6839
1	1595	6860
1	1593	6861
1	1596	6862
1	1611	6863
1	1626	6864
1	1635	6865
1	1646	6866
1	1652	6867
1	1656	6868
1	1660	6869
1	1661	6870
1	1665	6871
1	1681	6872
1	1693	6873
1	1710	6874
1	1724	6875
1	1738	6876
1	1749	6877
1	1764	6878
1	1765	6879
1	1760	6880
1	1748	6881
1	1732	6882
1	1719	6883
1	1704	6884
1	1686	6885
1	1663	6886
1	1646	6887
1	1625	6888
1	1611	6889
1	1611	6890
1	1619	6891
1	1629	6892
1	1647	6893
1	1659	6894
1	1668	6895
1	1669	6896
1	1667	6897
1	1660	6898
1	1654	6899
1	1649	6900
1	1644	6901
1	1633	6902
1	1611	6903
1	1603	6904
1	1599	6905
1	1605	6906
1	1616	6907
1	1629	6908
1	1634	6909
1	1644	6910
1	1658	6911
1	1672	6912
1	1688	6913
1	1701	6914
1	1710	6915
1	1712	6916
1	1712	6917
1	1710	6918
1	1715	6919
1	1719	6920
1	1721	6921
1	1719	6922
1	1723	6923
1	1713	6924
1	1703	6925
1	1687	6926
1	1669	6927
1	1648	6928
1	1632	6929
1	1618	6930
1	1608	6931
1	1610	6932
1	1614	6933
1	1620	6934
1	1629	6935
1	1633	6936
1	1633	6937
1	1630	6938
1	1621	6939
1	1618	6940
1	1611	6941
1	1598	6942
1	1589	6943
1	1585	6944
1	1595	6945
1	1612	6946
1	1633	6947
1	1643	6948
1	1656	6949
1	1661	6950
1	1674	6951
1	1685	6952
1	1688	6953
1	1682	6954
1	1674	6955
1	1665	6956
1	1662	6957
1	1662	6958
1	1665	6959
1	1669	6960
1	1668	6961
1	1668	6962
1	1661	6963
1	1657	6964
1	1650	6965
1	1637	6966
1	1621	6967
1	1616	6968
1	1616	6969
1	1629	6970
1	1641	6971
1	1658	6972
1	1669	6973
1	1669	6974
1	1659	6975
1	1639	6976
1	1625	6977
1	1608	6978
1	1603	6979
1	1600	6980
1	1610	6981
1	1630	6982
1	1651	6983
1	1660	6984
1	1672	6985
1	1682	6986
1	1687	6987
1	1688	6988
1	1685	6989
1	1673	6990
1	1670	6991
1	1668	6992
1	1660	6993
1	1647	6994
1	1634	6995
1	1619	6996
1	1607	6997
1	1605	6998
1	1596	6999
1	1593	7000
1	1596	7001
1	1603	7002
1	1606	7003
1	1607	7004
1	1611	7005
1	1626	7006
1	1647	7007
1	1669	7008
1	1686	7009
1	1697	7010
1	1701	7011
1	1704	7012
1	1711	7013
1	1712	7014
1	1711	7015
1	1700	7016
1	1692	7017
1	1697	7018
1	1708	7019
1	1720	7020
1	1737	7021
1	1744	7022
1	1744	7023
1	1739	7024
1	1729	7025
1	1720	7026
1	1712	7027
1	1699	7028
1	1671	7029
1	1645	7030
1	1629	7031
1	1626	7032
1	1623	7033
1	1634	7034
1	1652	7035
1	1673	7036
1	1688	7037
1	1703	7038
1	1712	7039
1	1718	7040
1	1724	7041
1	1723	7042
1	1717	7043
1	1712	7044
1	1712	7045
1	1718	7046
1	1721	7047
1	1714	7048
1	1709	7049
1	1698	7050
1	1683	7051
1	1667	7052
1	1652	7053
1	1645	7054
1	1634	7055
1	1626	7056
1	1625	7057
1	1631	7058
1	1628	7059
1	1632	7060
1	1638	7061
1	1647	7062
1	1657	7063
1	1662	7064
1	1661	7065
1	1660	7066
1	1660	7067
1	1658	7068
1	1650	7069
1	1634	7070
1	1622	7071
1	1608	7072
1	1607	7073
1	1602	7074
1	1607	7075
1	1612	7076
1	1625	7077
1	1635	7078
1	1645	7079
1	1651	7080
1	1653	7081
1	1655	7082
1	1647	7083
1	1639	7084
1	1623	7085
1	1603	7086
1	1581	7087
1	1568	7088
1	1554	7089
1	1555	7090
1	1557	7091
1	1563	7092
1	1572	7093
1	1579	7094
1	1584	7095
1	1597	7096
1	1611	7097
1	1625	7098
1	1647	7099
1	1665	7100
1	1677	7101
1	1683	7102
1	1688	7103
1	1686	7104
1	1670	7105
1	1652	7106
1	1625	7107
1	1593	7108
1	1571	7109
1	1563	7110
1	1561	7111
1	1562	7112
1	1559	7113
1	1571	7114
1	1581	7115
1	1596	7116
1	1610	7117
1	1634	7118
1	1650	7119
1	1811	7140
1	1832	7141
1	1860	7142
1	1891	7143
1	1922	7144
1	1957	7145
1	1988	7146
1	2024	7147
1	2065	7148
1	2105	7149
1	2146	7150
1	2183	7151
1	2221	7152
1	2266	7153
1	2304	7154
1	2336	7155
1	2364	7156
1	2377	7157
1	2362	7158
1	2333	7159
1	1672	7120
1	1684	7121
1	1686	7122
1	1687	7123
1	1687	7124
1	1685	7125
1	1679	7126
1	1670	7127
1	1660	7128
1	1660	7129
1	1661	7130
1	1665	7131
1	1670	7132
1	1683	7133
1	1692	7134
1	1699	7135
1	1720	7136
1	1739	7137
1	1754	7138
1	1778	7139
1	2302	7160
1	2262	7161
1	2213	7162
1	2170	7163
1	2129	7164
1	2084	7165
1	2025	7166
1	1958	7167
1	1890	7168
1	1823	7169
1	1755	7170
1	1697	7171
1	1643	7172
1	1589	7173
1	1551	7174
1	1517	7175
1	1490	7176
1	1476	7177
1	1477	7178
1	1485	7179
1	1503	7180
1	1521	7181
1	1532	7182
1	1542	7183
1	1544	7184
1	1545	7185
1	1549	7186
1	1554	7187
1	1549	7188
1	1551	7189
1	1549	7190
1	1552	7191
1	1557	7192
1	1566	7193
1	1571	7194
1	1581	7195
1	1591	7196
1	1609	7197
1	1634	7198
1	1647	7199
1	1650	7200
1	1646	7201
1	1634	7202
1	1616	7203
1	1600	7204
1	1593	7205
1	1590	7206
1	1592	7207
1	1595	7208
1	1598	7209
1	1607	7210
1	1613	7211
1	1620	7212
1	1619	7213
1	1607	7214
1	1597	7215
1	1593	7216
1	1594	7217
1	1594	7218
1	1606	7219
1	1569	7240
1	1583	7241
1	1592	7242
1	1596	7243
1	1607	7244
1	1620	7245
1	1633	7246
1	1644	7247
1	1643	7248
1	1645	7249
1	1644	7250
1	1642	7251
1	1641	7252
1	1643	7253
1	1639	7254
1	1637	7255
1	1634	7256
1	1630	7257
1	1628	7258
1	1621	7259
1	1621	7220
1	1643	7221
1	1654	7222
1	1660	7223
1	1649	7224
1	1634	7225
1	1620	7226
1	1607	7227
1	1594	7228
1	1581	7229
1	1581	7230
1	1580	7231
1	1583	7232
1	1590	7233
1	1592	7234
1	1584	7235
1	1574	7236
1	1569	7237
1	1559	7238
1	1564	7239
1	1616	7260
1	1609	7261
1	1609	7262
1	1604	7263
1	1606	7264
1	1607	7265
1	1607	7266
1	1615	7267
1	1625	7268
1	1632	7269
1	1634	7270
1	1633	7271
1	1623	7272
1	1618	7273
1	1618	7274
1	1619	7275
1	1621	7276
1	1622	7277
1	1609	7278
1	1606	7279
1	1667	7300
1	1680	7301
1	1695	7302
1	1704	7303
1	1710	7304
1	1704	7305
1	1697	7306
1	1686	7307
1	1667	7308
1	1652	7309
1	1644	7310
1	1629	7311
1	1616	7312
1	1598	7313
1	1587	7314
1	1582	7315
1	1589	7316
1	1606	7317
1	1634	7318
1	1665	7319
1	1603	7280
1	1607	7281
1	1617	7282
1	1635	7283
1	1647	7284
1	1660	7285
1	1674	7286
1	1686	7287
1	1685	7288
1	1676	7289
1	1664	7290
1	1652	7291
1	1643	7292
1	1625	7293
1	1623	7294
1	1628	7295
1	1634	7296
1	1639	7297
1	1648	7298
1	1658	7299
1	1698	7320
1	1720	7321
1	1736	7322
1	1737	7323
1	1726	7324
1	1718	7325
1	1710	7326
1	1699	7327
1	1700	7328
1	1699	7329
1	1703	7330
1	1700	7331
1	1697	7332
1	1686	7333
1	1679	7334
1	1668	7335
1	1657	7336
1	1647	7337
1	1647	7338
1	1647	7339
1	1728	7360
1	1742	7361
1	1753	7362
1	1755	7363
1	1755	7364
1	1751	7365
1	1744	7366
1	1739	7367
1	1724	7368
1	1712	7369
1	1699	7370
1	1685	7371
1	1667	7372
1	1661	7373
1	1657	7374
1	1649	7375
1	1645	7376
1	1645	7377
1	1651	7378
1	1656	7379
1	1651	7340
1	1656	7341
1	1662	7342
1	1670	7343
1	1686	7344
1	1697	7345
1	1714	7346
1	1725	7347
1	1733	7348
1	1741	7349
1	1750	7350
1	1752	7351
1	1751	7352
1	1737	7353
1	1721	7354
1	1704	7355
1	1692	7356
1	1688	7357
1	1700	7358
1	1712	7359
1	1660	7380
1	1661	7381
1	1667	7382
1	1660	7383
1	1660	7384
1	1660	7385
1	1662	7386
1	1668	7387
1	1681	7388
1	1681	7389
1	1676	7390
1	1672	7391
1	1661	7392
1	1656	7393
1	1638	7394
1	1622	7395
1	1608	7396
1	1603	7397
1	1590	7398
1	1587	7399
1	1593	7400
1	1602	7401
1	1619	7402
1	1641	7403
1	1658	7404
1	1665	7405
1	1671	7406
1	1674	7407
1	1670	7408
1	1660	7409
1	1647	7410
1	1633	7411
1	1611	7412
1	1589	7413
1	1579	7414
1	1574	7415
1	1572	7416
1	1574	7417
1	1580	7418
1	1579	7419
1	1577	7420
1	1580	7421
1	1590	7422
1	1605	7423
1	1620	7424
1	1633	7425
1	1634	7426
1	1638	7427
1	1630	7428
1	1623	7429
1	1613	7430
1	1604	7431
1	1589	7432
1	1581	7433
1	1557	7434
1	1550	7435
1	1550	7436
1	1540	7437
1	1532	7438
1	1529	7439
1	1526	7440
1	1533	7441
1	1542	7442
1	1550	7443
1	1553	7444
1	1554	7445
1	1556	7446
1	1558	7447
1	1557	7448
1	1555	7449
1	1562	7450
1	1566	7451
1	1561	7452
1	1559	7453
1	1563	7454
1	1569	7455
1	1574	7456
1	1580	7457
1	1579	7458
1	1582	7459
1	1589	7460
1	1591	7461
1	1590	7462
1	1589	7463
1	1572	7464
1	1556	7465
1	1552	7466
1	1548	7467
1	1548	7468
1	1551	7469
1	1555	7470
1	1570	7471
1	1584	7472
1	1593	7473
1	1605	7474
1	1622	7475
1	1638	7476
1	1650	7477
1	1660	7478
1	1660	7479
1	1634	7500
1	1634	7501
1	1633	7502
1	1625	7503
1	1622	7504
1	1618	7505
1	1618	7506
1	1618	7507
1	1626	7508
1	1629	7509
1	1631	7510
1	1634	7511
1	1635	7512
1	1637	7513
1	1634	7514
1	1633	7515
1	1634	7516
1	1638	7517
1	1641	7518
1	1648	7519
1	1648	7480
1	1632	7481
1	1609	7482
1	1592	7483
1	1574	7484
1	1557	7485
1	1542	7486
1	1525	7487
1	1503	7488
1	1503	7489
1	1508	7490
1	1521	7491
1	1543	7492
1	1558	7493
1	1581	7494
1	1602	7495
1	1620	7496
1	1634	7497
1	1641	7498
1	1641	7499
1	1657	7520
1	1662	7521
1	1661	7522
1	1658	7523
1	1646	7524
1	1634	7525
1	1618	7526
1	1605	7527
1	1592	7528
1	1587	7529
1	1582	7530
1	1580	7531
1	1575	7532
1	1571	7533
1	1567	7534
1	1566	7535
1	1564	7536
1	1570	7537
1	1570	7538
1	1581	7539
1	1598	7540
1	1620	7541
1	1632	7542
1	1639	7543
1	1646	7544
1	1656	7545
1	1663	7546
1	1671	7547
1	1670	7548
1	1676	7549
1	1683	7550
1	1687	7551
1	1686	7552
1	1688	7553
1	1677	7554
1	1659	7555
1	1634	7556
1	1620	7557
1	1622	7558
1	1634	7559
1	1647	7560
1	1660	7561
1	1672	7562
1	1670	7563
1	1661	7564
1	1651	7565
1	1639	7566
1	1634	7567
1	1634	7568
1	1639	7569
1	1646	7570
1	1648	7571
1	1656	7572
1	1659	7573
1	1664	7574
1	1674	7575
1	1686	7576
1	1695	7577
1	1698	7578
1	1698	7579
1	1691	7580
1	1679	7581
1	1664	7582
1	1660	7583
1	1643	7584
1	1627	7585
1	1615	7586
1	1611	7587
1	1607	7588
1	1603	7589
1	1603	7590
1	1607	7591
1	1607	7592
1	1608	7593
1	1607	7594
1	1612	7595
1	1623	7596
1	1634	7597
1	1647	7598
1	1647	7599
1	1652	7600
1	1657	7601
1	1658	7602
1	1658	7603
1	1657	7604
1	1651	7605
1	1642	7606
1	1631	7607
1	1608	7608
1	1593	7609
1	1577	7610
1	1559	7611
1	1544	7612
1	1544	7613
1	1555	7614
1	1574	7615
1	1594	7616
1	1611	7617
1	1629	7618
1	1637	7619
1	1641	7620
1	1643	7621
1	1644	7622
1	1632	7623
1	1625	7624
1	1622	7625
1	1631	7626
1	1634	7627
1	1634	7628
1	1631	7629
1	1625	7630
1	1625	7631
1	1628	7632
1	1618	7633
1	1608	7634
1	1607	7635
1	1607	7636
1	1607	7637
1	1610	7638
1	1612	7639
1	1619	7640
1	1629	7641
1	1644	7642
1	1659	7643
1	1667	7644
1	1680	7645
1	1692	7646
1	1697	7647
1	1686	7648
1	1665	7649
1	1642	7650
1	1618	7651
1	1603	7652
1	1582	7653
1	1569	7654
1	1563	7655
1	1569	7656
1	1581	7657
1	1596	7658
1	1604	7659
1	1610	7660
1	1617	7661
1	1625	7662
1	1622	7663
1	1621	7664
1	1620	7665
1	1616	7666
1	1616	7667
1	1608	7668
1	1610	7669
1	1613	7670
1	1621	7671
1	1631	7672
1	1643	7673
1	1644	7674
1	1649	7675
1	1660	7676
1	1665	7677
1	1665	7678
1	1661	7679
1	1660	7680
1	1660	7681
1	1660	7682
1	1660	7683
1	1659	7684
1	1660	7685
1	1661	7686
1	1660	7687
1	1659	7688
1	1644	7689
1	1629	7690
1	1612	7691
1	1607	7692
1	1605	7693
1	1604	7694
1	1610	7695
1	1631	7696
1	1649	7697
1	1670	7698
1	1687	7699
1	1710	7700
1	1720	7701
1	1727	7702
1	1737	7703
1	1724	7704
1	1711	7705
1	1697	7706
1	1684	7707
1	1670	7708
1	1661	7709
1	1658	7710
1	1659	7711
1	1662	7712
1	1661	7713
1	1662	7714
1	1667	7715
1	1674	7716
1	1677	7717
1	1678	7718
1	1672	7719
1	1675	7720
1	1682	7721
1	1686	7722
1	1694	7723
1	1699	7724
1	1704	7725
1	1706	7726
1	1710	7727
1	1708	7728
1	1712	7729
1	1713	7730
1	1706	7731
1	1692	7732
1	1686	7733
1	1674	7734
1	1662	7735
1	1672	7736
1	1675	7737
1	1672	7738
1	1672	7739
1	1669	7740
1	1662	7741
1	1660	7742
1	1660	7743
1	1669	7744
1	1678	7745
1	1686	7746
1	1694	7747
1	1702	7748
1	1697	7749
1	1697	7750
1	1689	7751
1	1673	7752
1	1651	7753
1	1634	7754
1	1613	7755
1	1598	7756
1	1595	7757
1	1591	7758
1	1593	7759
1	1594	7760
1	1594	7761
1	1593	7762
1	1589	7763
1	1581	7764
1	1569	7765
1	1556	7766
1	1544	7767
1	1529	7768
1	1517	7769
1	1508	7770
1	1503	7771
1	1503	7772
1	1502	7773
1	1504	7774
1	1517	7775
1	1533	7776
1	1559	7777
1	1598	7778
1	1634	7779
1	1674	7800
1	1670	7801
1	1661	7802
1	1641	7803
1	1623	7804
1	1598	7805
1	1569	7806
1	1542	7807
1	1530	7808
1	1521	7809
1	1521	7810
1	1525	7811
1	1536	7812
1	1555	7813
1	1582	7814
1	1611	7815
1	1641	7816
1	1670	7817
1	1698	7818
1	1738	7819
1	1670	7780
1	1698	7781
1	1711	7782
1	1710	7783
1	1706	7784
1	1703	7785
1	1693	7786
1	1672	7787
1	1651	7788
1	1643	7789
1	1642	7790
1	1646	7791
1	1652	7792
1	1661	7793
1	1665	7794
1	1668	7795
1	1670	7796
1	1671	7797
1	1672	7798
1	1675	7799
1	2341	7840
1	2309	7841
1	2258	7842
1	2195	7843
1	2135	7844
1	2079	7845
1	2021	7846
1	1972	7847
1	1916	7848
1	1864	7849
1	1813	7850
1	1754	7851
1	1700	7852
1	1659	7853
1	1632	7854
1	1617	7855
1	1611	7856
1	1606	7857
1	1593	7858
1	1577	7859
1	1779	7820
1	1822	7821
1	1865	7822
1	1913	7823
1	1956	7824
1	1991	7825
1	2026	7826
1	2057	7827
1	2087	7828
1	2116	7829
1	2145	7830
1	2174	7831
1	2212	7832
1	2253	7833
1	2287	7834
1	2318	7835
1	2341	7836
1	2359	7837
1	2367	7838
1	2358	7839
1	1555	7860
1	1530	7861
1	1505	7862
1	1481	7863
1	1465	7864
1	1463	7865
1	1476	7866
1	1494	7867
1	1517	7868
1	1539	7869
1	1563	7870
1	1593	7871
1	1615	7872
1	1623	7873
1	1625	7874
1	1622	7875
1	1622	7876
1	1628	7877
1	1634	7878
1	1642	7879
1	1617	7900
1	1616	7901
1	1609	7902
1	1607	7903
1	1610	7904
1	1619	7905
1	1623	7906
1	1625	7907
1	1620	7908
1	1616	7909
1	1608	7910
1	1602	7911
1	1597	7912
1	1607	7913
1	1611	7914
1	1618	7915
1	1628	7916
1	1642	7917
1	1658	7918
1	1673	7919
1	1647	7880
1	1647	7881
1	1642	7882
1	1638	7883
1	1634	7884
1	1634	7885
1	1626	7886
1	1607	7887
1	1581	7888
1	1568	7889
1	1566	7890
1	1567	7891
1	1569	7892
1	1575	7893
1	1582	7894
1	1590	7895
1	1593	7896
1	1594	7897
1	1607	7898
1	1611	7899
1	1683	7920
1	1686	7921
1	1685	7922
1	1680	7923
1	1685	7924
1	1682	7925
1	1669	7926
1	1655	7927
1	1641	7928
1	1621	7929
1	1607	7930
1	1593	7931
1	1585	7932
1	1579	7933
1	1580	7934
1	1584	7935
1	1594	7936
1	1598	7937
1	1607	7938
1	1608	7939
1	1607	7940
1	1595	7941
1	1584	7942
1	1580	7943
1	1571	7944
1	1570	7945
1	1579	7946
1	1584	7947
1	1593	7948
1	1602	7949
1	1607	7950
1	1620	7951
1	1637	7952
1	1647	7953
1	1669	7954
1	1689	7955
1	1709	7956
1	1728	7957
1	1744	7958
1	1751	7959
1	1756	7960
1	1758	7961
1	1751	7962
1	1739	7963
1	1723	7964
1	1701	7965
1	1679	7966
1	1656	7967
1	1634	7968
1	1618	7969
1	1607	7970
1	1607	7971
1	1615	7972
1	1636	7973
1	1655	7974
1	1672	7975
1	1685	7976
1	1694	7977
1	1697	7978
1	1692	7979
1	1682	7980
1	1668	7981
1	1651	7982
1	1633	7983
1	1620	7984
1	1615	7985
1	1625	7986
1	1641	7987
1	1660	7988
1	1670	7989
1	1686	7990
1	1704	7991
1	1726	7992
1	1743	7993
1	1764	7994
1	1779	7995
1	1788	7996
1	1786	7997
1	1770	7998
1	1759	7999
1	1745	8000
1	1728	8000
1	1710	8002
1	1694	8003
1	1665	8004
1	1641	8005
1	1620	8006
1	1596	8007
1	1576	8008
1	1562	8009
1	1557	8010
1	1569	8011
1	1590	8012
1	1609	8013
1	1641	8013
1	1680	8015
1	1720	8016
1	1764	8016
1	1817	8018
1	1853	8019
1	1873	8020
1	1884	8021
1	1885	8022
1	1878	8023
1	1868	8024
1	1850	8025
1	1829	8026
1	1799	8027
1	1769	8028
1	1746	8029
1	1731	8029
1	1712	8031
1	1698	8032
1	1698	8032
1	1694	8034
1	1686	8035
1	1693	8036
1	1698	8037
1	1701	8038
1	1707	8039
1	1711	8040
1	1713	8041
1	1715	8042
1	1715	8043
1	1720	8044
1	1723	8045
1	1725	8045
1	1729	8047
1	1736	8048
1	1735	8048
1	1747	8050
1	1751	8051
1	1751	8052
1	1748	8053
1	1741	8054
1	1724	8055
1	1703	8056
1	1686	8057
1	1664	8058
1	1655	8059
1	1648	8060
1	1647	8061
1	1647	8061
1	1656	8063
1	1660	8064
1	1668	8064
1	1683	8066
1	1693	8067
1	1698	8068
1	1699	8069
1	1701	8070
1	1710	8071
1	1716	8072
1	1719	8073
1	1723	8074
1	1723	8074
1	1717	8076
1	1705	8077
1	1688	8077
1	1663	8079
1	1634	8080
1	1607	8080
1	1586	8082
1	1568	8083
1	1555	8084
1	1553	8085
1	1560	8086
1	1574	8087
1	1582	8088
1	1602	8089
1	1623	8090
1	1634	8090
1	1636	8092
1	1648	8093
1	1649	8093
1	1654	8095
1	1652	8096
1	1652	8096
1	1651	8098
1	1650	8099
1	1648	8100
1	1651	8101
1	1655	8102
1	1654	8103
1	1652	8104
1	1651	8105
1	1643	8106
1	1631	8106
1	1618	8108
1	1605	8109
1	1593	8109
1	1587	8111
1	1587	8112
1	1586	8113
1	1589	8114
1	1592	8115
1	1593	8116
1	1594	8117
1	1592	8118
1	1587	8119
1	1648	8140
1	1628	8141
1	1602	8141
1	1576	8143
1	1549	8144
1	1521	8145
1	1498	8146
1	1482	8147
1	1474	8148
1	1474	8149
1	1476	8150
1	1481	8151
1	1487	8152
1	1494	8153
1	1495	8154
1	1499	8154
1	1503	8156
1	1526	8157
1	1545	8157
1	1566	8159
1	1584	8120
1	1582	8121
1	1581	8122
1	1580	8122
1	1569	8124
1	1560	8125
1	1561	8125
1	1575	8127
1	1594	8128
1	1618	8129
1	1634	8130
1	1634	8131
1	1636	8132
1	1642	8133
1	1656	8134
1	1671	8135
1	1686	8136
1	1689	8137
1	1686	8138
1	1665	8138
1	1583	8160
1	1595	8161
1	1606	8162
1	1603	8163
1	1598	8164
1	1594	8165
1	1595	8166
1	1603	8167
1	1622	8168
1	1638	8169
1	1648	8170
1	1652	8170
1	1648	8172
1	1647	8173
1	1646	8173
1	1644	8175
1	1638	8176
1	1632	8177
1	1616	8178
1	1607	8179
1	1593	8180
1	1585	8181
1	1585	8182
1	1593	8183
1	1593	8184
1	1600	8185
1	1612	8186
1	1620	8186
1	1620	8188
1	1618	8189
1	1616	8189
1	1610	8191
1	1607	8192
1	1602	8193
1	1593	8194
1	1582	8195
1	1578	8196
1	1569	8197
1	1565	8198
1	1555	8199
1	1550	8200
1	1555	8201
1	1564	8202
1	1580	8203
1	1602	8204
1	1625	8205
1	1654	8206
1	1680	8207
1	1690	8208
1	1698	8209
1	1700	8210
1	1697	8211
1	1687	8212
1	1677	8213
1	1656	8214
1	1633	8215
1	1607	8216
1	1589	8217
1	1572	8218
1	1563	8219
1	1555	8220
1	1551	8221
1	1548	8222
1	1542	8223
1	1533	8224
1	1529	8225
1	1525	8226
1	1531	8227
1	1555	8228
1	1571	8229
1	1579	8230
1	1587	8231
1	1596	8232
1	1603	8233
1	1612	8234
1	1621	8235
1	1625	8236
1	1629	8237
1	1638	8238
1	1654	8239
1	1645	8260
1	1679	8261
1	1708	8262
1	1729	8263
1	1744	8264
1	1757	8265
1	1757	8266
1	1743	8267
1	1723	8268
1	1706	8269
1	1690	8270
1	1682	8271
1	1677	8272
1	1673	8273
1	1664	8274
1	1655	8275
1	1646	8276
1	1634	8277
1	1619	8278
1	1603	8279
1	1664	8240
1	1669	8241
1	1672	8242
1	1667	8243
1	1655	8244
1	1650	8245
1	1641	8246
1	1621	8247
1	1602	8248
1	1584	8249
1	1566	8250
1	1546	8251
1	1529	8252
1	1503	8253
1	1490	8254
1	1488	8255
1	1497	8256
1	1526	8257
1	1563	8258
1	1607	8259
1	1676	8300
1	1680	8301
1	1678	8302
1	1673	8303
1	1660	8304
1	1638	8305
1	1621	8306
1	1606	8307
1	1596	8308
1	1595	8309
1	1599	8310
1	1604	8311
1	1606	8312
1	1606	8313
1	1611	8314
1	1625	8315
1	1634	8316
1	1639	8317
1	1656	8318
1	1662	8319
1	1584	8280
1	1567	8281
1	1551	8282
1	1536	8283
1	1531	8284
1	1541	8285
1	1557	8286
1	1581	8287
1	1606	8288
1	1621	8289
1	1628	8290
1	1639	8291
1	1642	8292
1	1645	8293
1	1647	8294
1	1652	8295
1	1652	8296
1	1658	8297
1	1660	8298
1	1669	8299
1	1670	8320
1	1674	8321
1	1670	8322
1	1660	8323
1	1645	8324
1	1626	8325
1	1611	8326
1	1606	8327
1	1597	8328
1	1597	8329
1	1603	8330
1	1607	8331
1	1617	8332
1	1631	8333
1	1634	8334
1	1638	8335
1	1649	8336
1	1652	8337
1	1647	8338
1	1648	8339
1	1644	8340
1	1634	8341
1	1625	8342
1	1620	8343
1	1615	8344
1	1608	8345
1	1605	8346
1	1602	8347
1	1597	8348
1	1587	8349
1	1600	8350
1	1603	8351
1	1610	8352
1	1623	8353
1	1638	8354
1	1647	8355
1	1657	8356
1	1659	8357
1	1650	8358
1	1649	8359
1	1652	8360
1	1656	8361
1	1660	8362
1	1660	8363
1	1654	8364
1	1643	8365
1	1634	8366
1	1628	8367
1	1626	8368
1	1634	8369
1	1634	8370
1	1634	8371
1	1634	8372
1	1634	8373
1	1634	8374
1	1645	8375
1	1648	8376
1	1649	8377
1	1651	8378
1	1649	8379
1	1655	8380
1	1660	8381
1	1671	8382
1	1682	8383
1	1692	8384
1	1703	8385
1	1706	8386
1	1699	8387
1	1683	8388
1	1668	8389
1	1660	8390
1	1659	8391
1	1651	8392
1	1656	8393
1	1657	8394
1	1663	8395
1	1682	8396
1	1701	8397
1	1723	8398
1	1742	8399
1	1751	8400
1	1752	8401
1	1749	8402
1	1737	8403
1	1726	8404
1	1712	8405
1	1695	8406
1	1684	8407
1	1680	8408
1	1665	8409
1	1651	8410
1	1637	8411
1	1634	8412
1	1638	8413
1	1647	8414
1	1659	8415
1	1674	8416
1	1697	8417
1	1712	8418
1	1724	8419
1	1733	8420
1	1733	8421
1	1733	8422
1	1737	8423
1	1731	8424
1	1725	8425
1	1714	8426
1	1703	8427
1	1690	8428
1	1676	8429
1	1661	8430
1	1645	8431
1	1634	8432
1	1629	8433
1	1620	8434
1	1611	8435
1	1598	8436
1	1581	8437
1	1574	8438
1	1564	8439
1	1579	8440
1	1594	8441
1	1607	8442
1	1620	8443
1	1633	8444
1	1634	8445
1	1634	8446
1	1631	8447
1	1615	8448
1	1605	8449
1	1598	8450
1	1599	8451
1	1607	8452
1	1619	8453
1	1629	8454
1	1642	8455
1	1660	8456
1	1679	8457
1	1692	8458
1	1700	8459
1	1580	8480
1	1589	8481
1	1605	8482
1	1621	8483
1	1635	8484
1	1655	8485
1	1669	8486
1	1678	8487
1	1686	8488
1	1687	8489
1	1679	8490
1	1672	8491
1	1667	8492
1	1667	8493
1	1670	8494
1	1679	8495
1	1696	8496
1	1716	8497
1	1744	8498
1	1764	8499
1	1703	8460
1	1703	8461
1	1700	8462
1	1688	8463
1	1682	8464
1	1670	8465
1	1658	8466
1	1647	8467
1	1644	8468
1	1632	8469
1	1612	8470
1	1592	8471
1	1578	8472
1	1571	8473
1	1567	8474
1	1564	8475
1	1566	8476
1	1567	8477
1	1566	8478
1	1571	8479
1	1791	8500
1	1825	8501
1	1858	8502
1	1895	8503
1	1930	8504
1	1960	8505
1	1989	8506
1	2024	8507
1	2052	8508
1	2083	8509
1	2115	8510
1	2157	8511
1	2201	8512
1	2260	8513
1	2309	8514
1	2353	8515
1	2392	8516
1	2421	8517
1	2440	8518
1	2440	8519
1	2421	8520
1	2393	8521
1	2353	8522
1	2296	8523
1	2242	8524
1	2181	8525
1	2119	8526
1	2061	8527
1	2012	8528
1	1955	8529
1	1901	8530
1	1847	8531
1	1792	8532
1	1751	8533
1	1716	8534
1	1684	8535
1	1651	8536
1	1611	8537
1	1566	8538
1	1513	8539
1	1471	8540
1	1435	8541
1	1413	8542
1	1398	8543
1	1398	8544
1	1409	8545
1	1425	8546
1	1441	8547
1	1464	8548
1	1492	8549
1	1527	8550
1	1559	8551
1	1582	8552
1	1593	8553
1	1600	8554
1	1607	8555
1	1612	8556
1	1621	8557
1	1639	8558
1	1652	8559
1	1629	8580
1	1629	8581
1	1628	8582
1	1621	8583
1	1611	8584
1	1602	8585
1	1596	8586
1	1585	8587
1	1580	8588
1	1568	8589
1	1555	8590
1	1555	8591
1	1557	8592
1	1566	8593
1	1580	8594
1	1600	8595
1	1628	8596
1	1651	8597
1	1664	8598
1	1676	8599
1	1664	8560
1	1674	8561
1	1681	8562
1	1679	8563
1	1669	8564
1	1657	8565
1	1647	8566
1	1641	8567
1	1634	8568
1	1634	8569
1	1640	8570
1	1646	8571
1	1643	8572
1	1644	8573
1	1637	8574
1	1634	8575
1	1631	8576
1	1629	8577
1	1628	8578
1	1629	8579
1	1683	8600
1	1683	8601
1	1677	8602
1	1670	8603
1	1659	8604
1	1647	8605
1	1635	8606
1	1630	8607
1	1633	8608
1	1641	8609
1	1658	8610
1	1681	8611
1	1703	8612
1	1716	8613
1	1734	8614
1	1742	8615
1	1751	8616
1	1752	8617
1	1757	8618
1	1754	8619
1	1747	8620
1	1746	8621
1	1738	8622
1	1729	8623
1	1716	8624
1	1710	8625
1	1699	8626
1	1692	8627
1	1677	8628
1	1663	8629
1	1646	8630
1	1629	8631
1	1615	8632
1	1616	8633
1	1611	8634
1	1607	8635
1	1620	8636
1	1630	8637
1	1633	8638
1	1635	8639
1	1634	8640
1	1621	8641
1	1607	8642
1	1589	8643
1	1571	8644
1	1554	8645
1	1545	8646
1	1549	8647
1	1555	8648
1	1568	8649
1	1595	8650
1	1625	8651
1	1652	8652
1	1677	8653
1	1698	8654
1	1712	8655
1	1724	8656
1	1736	8657
1	1742	8658
1	1755	8659
1	1765	8660
1	1767	8661
1	1763	8662
1	1755	8663
1	1742	8664
1	1734	8665
1	1726	8666
1	1719	8667
1	1712	8668
1	1711	8669
1	1711	8670
1	1714	8671
1	1720	8672
1	1712	8673
1	1708	8674
1	1700	8675
1	1693	8676
1	1686	8677
1	1686	8678
1	1680	8679
1	1674	8680
1	1673	8681
1	1676	8682
1	1679	8683
1	1684	8684
1	1690	8685
1	1700	8686
1	1710	8687
1	1712	8688
1	1716	8689
1	1721	8690
1	1733	8691
1	1746	8692
1	1764	8693
1	1778	8694
1	1789	8695
1	1783	8696
1	1773	8697
1	1764	8698
1	1763	8699
1	1756	8700
1	1751	8701
1	1751	8702
1	1751	8703
1	1760	8704
1	1781	8705
1	1800	8706
1	1818	8707
1	1837	8708
1	1841	8709
1	1834	8710
1	1822	8711
1	1809	8712
1	1790	8713
1	1780	8714
1	1777	8715
1	1769	8716
1	1764	8717
1	1759	8718
1	1762	8719
1	1682	8740
1	1664	8741
1	1647	8742
1	1635	8743
1	1634	8744
1	1634	8745
1	1634	8746
1	1646	8747
1	1652	8748
1	1664	8749
1	1684	8750
1	1701	8751
1	1715	8752
1	1736	8753
1	1738	8754
1	1738	8755
1	1738	8756
1	1740	8757
1	1741	8758
1	1747	8759
1	1773	8720
1	1785	8721
1	1794	8722
1	1814	8723
1	1817	8724
1	1813	8725
1	1800	8726
1	1791	8727
1	1778	8728
1	1760	8729
1	1744	8730
1	1728	8731
1	1716	8732
1	1709	8733
1	1705	8734
1	1710	8735
1	1712	8736
1	1713	8737
1	1712	8738
1	1699	8739
1	1751	8760
1	1749	8761
1	1740	8762
1	1729	8763
1	1724	8764
1	1717	8765
1	1708	8766
1	1688	8767
1	1674	8768
1	1656	8769
1	1637	8770
1	1621	8771
1	1605	8772
1	1591	8773
1	1584	8774
1	1584	8775
1	1594	8776
1	1610	8777
1	1625	8778
1	1638	8779
1	1646	8780
1	1647	8781
1	1652	8782
1	1660	8783
1	1654	8784
1	1641	8785
1	1623	8786
1	1607	8787
1	1593	8788
1	1587	8789
1	1585	8790
1	1581	8791
1	1580	8792
1	1572	8793
1	1571	8794
1	1581	8795
1	1593	8796
1	1607	8797
1	1621	8798
1	1634	8799
1	1647	8800
1	1653	8801
1	1652	8802
1	1647	8803
1	1639	8804
1	1628	8805
1	1625	8806
1	1629	8807
1	1623	8808
1	1622	8809
1	1621	8810
1	1620	8811
1	1620	8812
1	1629	8813
1	1634	8814
1	1638	8815
1	1643	8816
1	1638	8817
1	1633	8818
1	1623	8819
1	1615	8820
1	1612	8821
1	1620	8822
1	1623	8823
1	1629	8824
1	1634	8825
1	1644	8826
1	1657	8827
1	1661	8828
1	1654	8829
1	1642	8830
1	1625	8831
1	1613	8832
1	1595	8833
1	1580	8834
1	1566	8835
1	1555	8836
1	1554	8837
1	1555	8838
1	1561	8839
1	1580	8840
1	1595	8841
1	1613	8842
1	1631	8843
1	1635	8844
1	1644	8845
1	1645	8846
1	1647	8847
1	1644	8848
1	1638	8849
1	1639	8850
1	1648	8851
1	1655	8852
1	1652	8853
1	1652	8854
1	1647	8855
1	1634	8856
1	1621	8857
1	1625	8858
1	1635	8859
1	1652	8860
1	1672	8861
1	1686	8862
1	1690	8863
1	1686	8864
1	1680	8865
1	1671	8866
1	1662	8867
1	1649	8868
1	1635	8869
1	1631	8870
1	1628	8871
1	1628	8872
1	1634	8873
1	1639	8874
1	1641	8875
1	1648	8876
1	1651	8877
1	1652	8878
1	1646	8879
1	1708	8900
1	1712	8901
1	1705	8902
1	1704	8903
1	1701	8904
1	1703	8905
1	1704	8906
1	1705	8907
1	1701	8908
1	1701	8909
1	1705	8910
1	1712	8911
1	1717	8912
1	1714	8913
1	1712	8914
1	1710	8915
1	1703	8916
1	1697	8917
1	1698	8918
1	1692	8919
1	1644	8880
1	1643	8881
1	1638	8882
1	1632	8883
1	1625	8884
1	1613	8885
1	1607	8886
1	1598	8887
1	1589	8888
1	1571	8889
1	1555	8890
1	1551	8891
1	1556	8892
1	1571	8893
1	1581	8894
1	1597	8895
1	1618	8896
1	1647	8897
1	1674	8898
1	1693	8899
1	1683	8920
1	1673	8921
1	1665	8922
1	1660	8923
1	1659	8924
1	1660	8925
1	1662	8926
1	1664	8927
1	1665	8928
1	1675	8929
1	1686	8930
1	1686	8931
1	1680	8932
1	1675	8933
1	1668	8934
1	1659	8935
1	1661	8936
1	1663	8937
1	1660	8938
1	1660	8939
1	1660	8940
1	1657	8941
1	1647	8942
1	1642	8943
1	1634	8944
1	1634	8945
1	1630	8946
1	1624	8947
1	1622	8948
1	1622	8949
1	1620	8950
1	1633	8951
1	1643	8952
1	1660	8953
1	1670	8954
1	1675	8955
1	1669	8956
1	1662	8957
1	1658	8958
1	1660	8959
1	1663	8960
1	1667	8961
1	1668	8962
1	1673	8963
1	1664	8964
1	1655	8965
1	1643	8966
1	1634	8967
1	1628	8968
1	1620	8969
1	1616	8970
1	1613	8971
1	1618	8972
1	1621	8973
1	1632	8974
1	1641	8975
1	1646	8976
1	1646	8977
1	1645	8978
1	1642	8979
1	1634	8980
1	1634	8981
1	1637	8982
1	1647	8983
1	1660	8984
1	1674	8985
1	1686	8986
1	1692	8987
1	1697	8988
1	1708	8989
1	1719	8990
1	1724	8991
1	1723	8992
1	1723	8993
1	1718	8994
1	1715	8995
1	1710	8996
1	1701	8997
1	1682	8998
1	1660	8999
1	1643	9000
1	1633	9001
1	1628	9002
1	1609	9003
1	1605	9004
1	1592	9005
1	1584	9006
1	1581	9007
1	1589	9008
1	1595	9009
1	1607	9010
1	1613	9011
1	1626	9012
1	1634	9013
1	1637	9014
1	1633	9015
1	1623	9016
1	1620	9017
1	1618	9018
1	1628	9019
1	1636	9020
1	1654	9021
1	1665	9022
1	1686	9023
1	1694	9024
1	1695	9025
1	1686	9026
1	1669	9027
1	1658	9028
1	1641	9029
1	1634	9030
1	1631	9031
1	1638	9032
1	1652	9033
1	1660	9034
1	1667	9035
1	1674	9036
1	1686	9037
1	1695	9038
1	1701	9039
1	1707	9040
1	1700	9041
1	1701	9042
1	1698	9043
1	1701	9044
1	1709	9045
1	1716	9046
1	1725	9047
1	1729	9048
1	1733	9049
1	1734	9050
1	1737	9051
1	1746	9052
1	1763	9053
1	1775	9054
1	1783	9055
1	1786	9056
1	1780	9057
1	1769	9058
1	1764	9059
1	1757	9060
1	1752	9061
1	1746	9062
1	1726	9063
1	1715	9064
1	1704	9065
1	1686	9066
1	1683	9067
1	1690	9068
1	1697	9069
1	1712	9070
1	1733	9071
1	1746	9072
1	1757	9073
1	1764	9074
1	1764	9075
1	1751	9076
1	1737	9077
1	1712	9078
1	1699	9079
1	1688	9080
1	1685	9081
1	1681	9082
1	1687	9083
1	1686	9084
1	1686	9085
1	1695	9086
1	1708	9087
1	1717	9088
1	1728	9089
1	1730	9090
1	1724	9091
1	1712	9092
1	1696	9093
1	1683	9094
1	1672	9095
1	1669	9096
1	1674	9097
1	1686	9098
1	1694	9099
1	1698	9100
1	1703	9101
1	1700	9102
1	1691	9103
1	1684	9104
1	1673	9105
1	1662	9106
1	1659	9107
1	1649	9108
1	1651	9109
1	1660	9110
1	1669	9111
1	1678	9112
1	1682	9113
1	1669	9114
1	1659	9115
1	1651	9116
1	1645	9117
1	1634	9118
1	1615	9119
1	1598	9120
1	1586	9121
1	1581	9122
1	1576	9123
1	1581	9124
1	1587	9125
1	1602	9126
1	1617	9127
1	1635	9128
1	1650	9129
1	1656	9130
1	1672	9131
1	1685	9132
1	1688	9133
1	1692	9134
1	1692	9135
1	1697	9136
1	1703	9137
1	1704	9138
1	1692	9139
1	1678	9140
1	1670	9141
1	1662	9142
1	1652	9143
1	1635	9144
1	1608	9145
1	1581	9146
1	1566	9147
1	1546	9148
1	1539	9149
1	1546	9150
1	1569	9151
1	1600	9152
1	1629	9153
1	1657	9154
1	1678	9155
1	1690	9156
1	1697	9157
1	1699	9158
1	1687	9159
1	1667	9160
1	1645	9161
1	1617	9162
1	1595	9163
1	1581	9164
1	1575	9165
1	1581	9166
1	1608	9167
1	1648	9168
1	1712	9169
1	1788	9170
1	1859	9171
1	1920	9172
1	1975	9173
1	2017	9174
1	2051	9175
1	2079	9176
1	2105	9177
1	2134	9178
1	2175	9179
1	2215	9180
1	2251	9181
1	2278	9182
1	2296	9183
1	2316	9184
1	2341	9185
1	2366	9186
1	2382	9187
1	2410	9188
1	2431	9189
1	2445	9190
1	2448	9191
1	2431	9192
1	2404	9193
1	2372	9194
1	2340	9195
1	2304	9196
1	2273	9197
1	2237	9198
1	2198	9199
1	2148	9200
1	2079	9201
1	2003	9202
1	1926	9203
1	1843	9204
1	1764	9205
1	1697	9206
1	1643	9207
1	1598	9208
1	1560	9209
1	1530	9210
1	1510	9211
1	1502	9212
1	1499	9213
1	1502	9214
1	1510	9215
1	1521	9216
1	1535	9217
1	1555	9218
1	1577	9219
1	1590	9220
1	1595	9221
1	1602	9222
1	1607	9223
1	1607	9224
1	1598	9225
1	1594	9226
1	1595	9227
1	1597	9228
1	1611	9229
1	1629	9230
1	1641	9231
1	1644	9232
1	1656	9233
1	1656	9234
1	1657	9235
1	1643	9236
1	1646	9237
1	1635	9238
1	1633	9239
1	1616	9240
1	1607	9241
1	1600	9242
1	1600	9243
1	1599	9244
1	1606	9245
1	1610	9246
1	1611	9247
1	1611	9248
1	1615	9249
1	1611	9250
1	1611	9251
1	1607	9252
1	1607	9253
1	1612	9254
1	1633	9255
1	1657	9256
1	1683	9257
1	1697	9258
1	1710	9259
1	1716	9260
1	1715	9261
1	1710	9262
1	1705	9263
1	1688	9264
1	1674	9265
1	1661	9266
1	1660	9267
1	1665	9268
1	1675	9269
1	1688	9270
1	1703	9271
1	1714	9272
1	1714	9273
1	1715	9274
1	1712	9275
1	1712	9276
1	1712	9277
1	1713	9278
1	1704	9279
1	1687	9280
1	1671	9281
1	1659	9282
1	1645	9283
1	1634	9284
1	1623	9285
1	1607	9286
1	1599	9287
1	1590	9288
1	1584	9289
1	1590	9290
1	1602	9291
1	1619	9292
1	1648	9293
1	1674	9294
1	1699	9295
1	1723	9296
1	1742	9297
1	1757	9298
1	1764	9299
1	1764	9300
1	1751	9301
1	1729	9302
1	1700	9303
1	1675	9304
1	1656	9305
1	1639	9306
1	1634	9307
1	1636	9308
1	1638	9309
1	1638	9310
1	1636	9311
1	1638	9312
1	1649	9313
1	1665	9314
1	1686	9315
1	1712	9316
1	1737	9317
1	1753	9318
1	1776	9319
1	1737	9340
1	1723	9341
1	1713	9342
1	1700	9343
1	1689	9344
1	1686	9345
1	1686	9346
1	1690	9347
1	1683	9348
1	1679	9349
1	1687	9350
1	1701	9351
1	1713	9352
1	1727	9353
1	1737	9354
1	1739	9355
1	1747	9356
1	1752	9357
1	1759	9358
1	1764	9359
1	1791	9320
1	1815	9321
1	1832	9322
1	1847	9323
1	1846	9324
1	1836	9325
1	1819	9326
1	1799	9327
1	1776	9328
1	1748	9329
1	1717	9330
1	1698	9331
1	1683	9332
1	1675	9333
1	1683	9334
1	1697	9335
1	1713	9336
1	1728	9337
1	1738	9338
1	1741	9339
1	1766	9360
1	1775	9361
1	1786	9362
1	1778	9363
1	1770	9364
1	1765	9365
1	1757	9366
1	1742	9367
1	1735	9368
1	1718	9369
1	1709	9370
1	1712	9371
1	1721	9372
1	1739	9373
1	1760	9374
1	1778	9375
1	1796	9376
1	1824	9377
1	1837	9378
1	1851	9379
1	1858	9380
1	1860	9381
1	1856	9382
1	1849	9383
1	1836	9384
1	1817	9385
1	1795	9386
1	1780	9387
1	1769	9388
1	1760	9389
1	1751	9390
1	1749	9391
1	1751	9392
1	1752	9393
1	1761	9394
1	1773	9395
1	1791	9396
1	1811	9397
1	1832	9398
1	1845	9399
1	1856	9400
1	1857	9401
1	1858	9402
1	1850	9403
1	1843	9404
1	1837	9405
1	1827	9406
1	1811	9407
1	1776	9408
1	1751	9409
1	1733	9410
1	1717	9411
1	1712	9412
1	1697	9413
1	1683	9414
1	1672	9415
1	1660	9416
1	1656	9417
1	1656	9418
1	1660	9419
1	1675	9420
1	1689	9421
1	1705	9422
1	1710	9423
1	1713	9424
1	1713	9425
1	1713	9426
1	1719	9427
1	1731	9428
1	1734	9429
1	1726	9430
1	1726	9431
1	1723	9432
1	1713	9433
1	1714	9434
1	1715	9435
1	1713	9436
1	1712	9437
1	1715	9438
1	1724	9439
1	1731	9440
1	1734	9441
1	1728	9442
1	1721	9443
1	1719	9444
1	1711	9445
1	1703	9446
1	1700	9447
1	1675	9448
1	1644	9449
1	1610	9450
1	1585	9451
1	1577	9452
1	1568	9453
1	1575	9454
1	1584	9455
1	1602	9456
1	1622	9457
1	1649	9458
1	1673	9459
1	1692	9460
1	1705	9461
1	1710	9462
1	1710	9463
1	1712	9464
1	1711	9465
1	1712	9466
1	1712	9467
1	1701	9468
1	1698	9469
1	1691	9470
1	1682	9471
1	1670	9472
1	1660	9473
1	1636	9474
1	1608	9475
1	1586	9476
1	1569	9477
1	1557	9478
1	1555	9479
1	1557	9480
1	1566	9481
1	1575	9482
1	1581	9483
1	1591	9484
1	1602	9485
1	1609	9486
1	1621	9487
1	1634	9488
1	1634	9489
1	1633	9490
1	1632	9491
1	1632	9492
1	1632	9493
1	1630	9494
1	1631	9495
1	1634	9496
1	1643	9497
1	1636	9498
1	1634	9499
1	1629	9500
1	1619	9501
1	1615	9502
1	1623	9503
1	1634	9504
1	1638	9505
1	1638	9506
1	1634	9507
1	1624	9508
1	1606	9509
1	1594	9510
1	1581	9511
1	1570	9512
1	1557	9513
1	1559	9514
1	1568	9515
1	1575	9516
1	1582	9517
1	1595	9518
1	1607	9519
1	1609	9540
1	1598	9541
1	1590	9542
1	1579	9543
1	1571	9544
1	1567	9545
1	1573	9546
1	1587	9547
1	1607	9548
1	1631	9549
1	1646	9550
1	1660	9551
1	1679	9552
1	1701	9553
1	1718	9554
1	1725	9555
1	1725	9556
1	1716	9557
1	1694	9558
1	1680	9559
1	1667	9560
1	1657	9561
1	1647	9562
1	1646	9563
1	1646	9564
1	1656	9565
1	1664	9566
1	1680	9567
1	1698	9568
1	1712	9569
1	1723	9570
1	1723	9571
1	1711	9572
1	1692	9573
1	1682	9574
1	1669	9575
1	1662	9576
1	1661	9577
1	1671	9578
1	1682	9579
1	1615	9520
1	1625	9521
1	1634	9522
1	1645	9523
1	1656	9524
1	1668	9525
1	1685	9526
1	1693	9527
1	1693	9528
1	1699	9529
1	1704	9530
1	1710	9531
1	1708	9532
1	1708	9533
1	1691	9534
1	1684	9535
1	1660	9536
1	1649	9537
1	1634	9538
1	1624	9539
1	1686	9580
1	1686	9581
1	1680	9582
1	1675	9583
1	1672	9584
1	1669	9585
1	1668	9586
1	1663	9587
1	1655	9588
1	1650	9589
1	1644	9590
1	1640	9591
1	1642	9592
1	1644	9593
1	1636	9594
1	1636	9595
1	1643	9596
1	1648	9597
1	1660	9598
1	1673	9599
1	1688	9600
1	1703	9601
1	1712	9602
1	1713	9603
1	1712	9604
1	1713	9605
1	1720	9606
1	1727	9607
1	1738	9608
1	1737	9609
1	1726	9610
1	1708	9611
1	1683	9612
1	1657	9613
1	1634	9614
1	1615	9615
1	1607	9616
1	1599	9617
1	1592	9618
1	1589	9619
1	1678	9640
1	1697	9641
1	1712	9642
1	1716	9643
1	1719	9644
1	1718	9645
1	1713	9646
1	1708	9647
1	1688	9648
1	1674	9649
1	1661	9650
1	1655	9651
1	1648	9652
1	1656	9653
1	1665	9654
1	1682	9655
1	1699	9656
1	1712	9657
1	1715	9658
1	1713	9659
1	1588	9620
1	1585	9621
1	1585	9622
1	1591	9623
1	1595	9624
1	1607	9625
1	1623	9626
1	1634	9627
1	1647	9628
1	1656	9629
1	1654	9630
1	1654	9631
1	1648	9632
1	1647	9633
1	1645	9634
1	1638	9635
1	1634	9636
1	1634	9637
1	1638	9638
1	1655	9639
1	1714	9660
1	1719	9661
1	1720	9662
1	1712	9663
1	1703	9664
1	1694	9665
1	1686	9666
1	1682	9667
1	1679	9668
1	1674	9669
1	1679	9670
1	1686	9671
1	1691	9672
1	1697	9673
1	1703	9674
1	1708	9675
1	1709	9676
1	1703	9677
1	1689	9678
1	1679	9679
1	1661	9680
1	1647	9681
1	1634	9682
1	1631	9683
1	1623	9684
1	1624	9685
1	1635	9686
1	1647	9687
1	1656	9688
1	1652	9689
1	1642	9690
1	1625	9691
1	1605	9692
1	1574	9693
1	1557	9694
1	1557	9695
1	1566	9696
1	1582	9697
1	1608	9698
1	1632	9699
1	1646	9700
1	1659	9701
1	1679	9702
1	1703	9703
1	1719	9704
1	1732	9705
1	1742	9706
1	1759	9707
1	1766	9708
1	1782	9709
1	1791	9710
1	1791	9711
1	1780	9712
1	1773	9713
1	1764	9714
1	1755	9715
1	1746	9716
1	1738	9717
1	1731	9718
1	1719	9719
1	1707	9720
1	1690	9721
1	1681	9722
1	1665	9723
1	1662	9724
1	1670	9725
1	1674	9726
1	1679	9727
1	1687	9728
1	1695	9729
1	1701	9730
1	1704	9731
1	1724	9732
1	1732	9733
1	1738	9734
1	1741	9735
1	1741	9736
1	1733	9737
1	1712	9738
1	1685	9739
1	1655	9740
1	1626	9741
1	1599	9742
1	1580	9743
1	1569	9744
1	1568	9745
1	1570	9746
1	1581	9747
1	1595	9748
1	1616	9749
1	1639	9750
1	1665	9751
1	1697	9752
1	1712	9753
1	1727	9754
1	1738	9755
1	1738	9756
1	1734	9757
1	1727	9758
1	1706	9759
1	1679	9760
1	1659	9761
1	1645	9762
1	1634	9763
1	1634	9764
1	1635	9765
1	1634	9766
1	1634	9767
1	1627	9768
1	1617	9769
1	1608	9770
1	1605	9771
1	1606	9772
1	1620	9773
1	1626	9774
1	1634	9775
1	1639	9776
1	1637	9777
1	1634	9778
1	1629	9779
1	1626	9780
1	1628	9781
1	1626	9782
1	1620	9783
1	1616	9784
1	1613	9785
1	1611	9786
1	1609	9787
1	1612	9788
1	1608	9789
1	1607	9790
1	1607	9791
1	1605	9792
1	1603	9793
1	1599	9794
1	1597	9795
1	1599	9796
1	1607	9797
1	1605	9798
1	1607	9799
1	1612	9800
1	1618	9801
1	1621	9802
1	1628	9803
1	1624	9804
1	1625	9805
1	1628	9806
1	1629	9807
1	1630	9808
1	1629	9809
1	1631	9810
1	1634	9811
1	1638	9812
1	1643	9813
1	1656	9814
1	1675	9815
1	1697	9816
1	1716	9817
1	1738	9818
1	1751	9819
1	1766	9820
1	1782	9821
1	1809	9822
1	1841	9823
1	1871	9824
1	1910	9825
1	1958	9826
1	2008	9827
1	2061	9828
1	2120	9829
1	2171	9830
1	2222	9831
1	2274	9832
1	2325	9833
1	2358	9834
1	2404	9835
1	2430	9836
1	2451	9837
1	2466	9838
1	2468	9839
1	2458	9840
1	2441	9841
1	2409	9842
1	2368	9843
1	2330	9844
1	2288	9845
1	2244	9846
1	2192	9847
1	2143	9848
1	2088	9849
1	2040	9850
1	1980	9851
1	1917	9852
1	1854	9853
1	1786	9854
1	1721	9855
1	1662	9856
1	1611	9857
1	1564	9858
1	1536	9859
1	1517	9860
1	1493	9861
1	1472	9862
1	1458	9863
1	1445	9864
1	1438	9865
1	1449	9866
1	1463	9867
1	1490	9868
1	1517	9869
1	1543	9870
1	1572	9871
1	1605	9872
1	1625	9873
1	1638	9874
1	1647	9875
1	1656	9876
1	1661	9877
1	1669	9878
1	1671	9879
1	1673	9880
1	1669	9881
1	1652	9882
1	1634	9883
1	1611	9884
1	1589	9885
1	1570	9886
1	1559	9887
1	1547	9888
1	1548	9889
1	1554	9890
1	1564	9891
1	1575	9892
1	1594	9893
1	1616	9894
1	1643	9895
1	1663	9896
1	1684	9897
1	1698	9898
1	1707	9899
1	1712	9900
1	1712	9901
1	1710	9902
1	1695	9903
1	1680	9904
1	1659	9905
1	1636	9906
1	1620	9907
1	1620	9908
1	1621	9909
1	1634	9910
1	1652	9911
1	1672	9912
1	1690	9913
1	1711	9914
1	1737	9915
1	1759	9916
1	1778	9917
1	1790	9918
1	1796	9919
1	1796	9920
1	1790	9921
1	1765	9922
1	1751	9923
1	1723	9924
1	1695	9925
1	1674	9926
1	1657	9927
1	1643	9928
1	1634	9929
1	1619	9930
1	1620	9931
1	1629	9932
1	1634	9933
1	1645	9934
1	1652	9935
1	1658	9936
1	1661	9937
1	1662	9938
1	1664	9939
1	1664	9940
1	1660	9941
1	1660	9942
1	1652	9943
1	1649	9944
1	1655	9945
1	1664	9946
1	1677	9947
1	1686	9948
1	1691	9949
1	1700	9950
1	1712	9951
1	1719	9952
1	1728	9953
1	1724	9954
1	1721	9955
1	1723	9956
1	1724	9957
1	1730	9958
1	1738	9959
1	1744	9960
1	1742	9961
1	1736	9962
1	1716	9963
1	1697	9964
1	1674	9965
1	1655	9966
1	1634	9967
1	1626	9968
1	1615	9969
1	1607	9970
1	1603	9971
1	1600	9972
1	1607	9973
1	1619	9974
1	1634	9975
1	1652	9976
1	1675	9977
1	1690	9978
1	1714	9979
1	1737	9980
1	1752	9981
1	1765	9982
1	1781	9983
1	1778	9984
1	1767	9985
1	1755	9986
1	1752	9987
1	1746	9988
1	1746	9989
1	1743	9990
1	1749	9991
1	1751	9992
1	1749	9993
1	1759	9994
1	1769	9995
1	1785	9996
1	1796	9997
1	1814	9998
1	1817	9999
1	1812	10000
1	1799	10001
1	1787	10002
1	1772	10003
1	1755	10004
1	1736	10005
1	1711	10006
1	1686	10007
1	1660	10008
1	1647	10009
1	1647	10010
1	1651	10011
1	1660	10012
1	1675	10013
1	1686	10014
1	1701	10015
1	1713	10016
1	1728	10017
1	1738	10018
1	1742	10019
1	1742	10020
1	1741	10021
1	1735	10022
1	1715	10023
1	1711	10024
1	1712	10025
1	1715	10026
1	1729	10027
1	1751	10028
1	1769	10029
1	1787	10030
1	1814	10031
1	1839	10032
1	1842	10033
1	1842	10034
1	1838	10035
1	1830	10036
1	1822	10037
1	1815	10038
1	1808	10039
1	1800	10040
1	1795	10041
1	1793	10042
1	1793	10043
1	1791	10044
1	1783	10045
1	1777	10046
1	1779	10047
1	1769	10048
1	1764	10049
1	1765	10050
1	1769	10051
1	1765	10052
1	1755	10053
1	1750	10054
1	1747	10055
1	1742	10056
1	1737	10057
1	1729	10058
1	1715	10059
1	1706	10060
1	1692	10061
1	1679	10062
1	1667	10063
1	1658	10064
1	1653	10065
1	1660	10066
1	1670	10067
1	1685	10068
1	1704	10069
1	1722	10070
1	1733	10071
1	1731	10072
1	1734	10073
1	1725	10074
1	1723	10075
1	1722	10076
1	1722	10077
1	1727	10078
1	1733	10079
1	1737	10080
1	1737	10081
1	1729	10082
1	1710	10083
1	1688	10084
1	1665	10085
1	1652	10086
1	1642	10087
1	1639	10088
1	1634	10089
1	1633	10090
1	1631	10091
1	1634	10092
