#Date:= 2024-10-01T15:44:57.035007
#Sampling Rate(Hz):= 1000
#Labels:= LOD	ECG	TS
1	1711	20
1	1679	21
1	1649	22
1	1620	23
1	1603	24
1	1595	25
1	1602	26
1	1624	27
1	1660	28
1	1704	29
1	1744	30
1	1791	31
1	1832	32
1	1862	33
1	1891	34
1	1897	35
1	1895	36
1	1882	37
1	1869	38
1	1852	39
1	1831	40
1	1801	41
1	1782	42
1	1764	43
1	1760	44
1	1757	45
1	1764	46
1	1779	47
1	1799	48
1	1832	49
1	1850	50
1	1862	51
1	1866	52
1	1860	53
1	1847	54
1	1823	55
1	1791	56
1	1764	57
1	1736	58
1	1703	59
1	1674	60
1	1656	61
1	1649	62
1	1657	63
1	1680	64
1	1700	65
1	1725	66
1	1763	67
1	1803	68
1	1851	69
1	1886	70
1	1914	71
1	1937	72
1	1952	73
1	1959	74
1	1947	75
1	1926	76
1	1903	77
1	1879	78
1	1854	79
1	1821	80
1	1791	81
1	1782	82
1	1782	83
1	1793	84
1	1819	85
1	1852	86
1	1890	87
1	1924	88
1	1955	89
1	1975	90
1	1992	91
1	2000	92
1	2003	93
1	2012	94
1	2004	95
1	1995	96
1	1979	97
1	1971	98
1	1958	99
1	1944	100
1	1926	101
1	1917	102
1	1906	103
1	1895	104
1	1883	105
1	1883	106
1	1894	107
1	1900	108
1	1917	109
1	1922	110
1	1922	111
1	1921	112
1	1922	113
1	1931	114
1	1939	115
1	1948	116
1	1952	117
1	1952	118
1	1948	119
1	1948	120
1	1948	121
1	1949	122
1	1960	123
1	1985	124
1	2025	125
1	2061	126
1	2100	127
1	2143	128
1	2183	129
1	2222	130
1	2251	131
1	2263	132
1	2266	133
1	2255	134
1	2240	135
1	2212	136
1	2179	137
1	2136	138
1	2086	139
1	2026	140
1	1971	141
1	1933	142
1	1904	143
1	1887	144
1	1884	145
1	1891	146
1	1907	147
1	1931	148
1	1958	149
1	1993	150
1	2030	151
1	2063	152
1	2079	153
1	2093	154
1	2081	155
1	2053	156
1	2017	157
1	1978	158
1	1937	159
1	1701	200
1	1675	201
1	1660	202
1	1654	203
1	1662	204
1	1682	205
1	1707	206
1	1737	207
1	1764	208
1	1780	209
1	1782	210
1	1769	211
1	1744	212
1	1714	213
1	1671	214
1	1626	215
1	1574	216
1	1523	217
1	1481	218
1	1455	219
1	1433	200
1	1415	201
1	1406	202
1	1413	203
1	1435	204
1	1463	205
1	1499	206
1	1540	207
1	1581	208
1	1616	209
1	1654	210
1	1684	211
1	1699	212
1	1702	213
1	1698	214
1	1683	215
1	1660	216
1	1634	217
1	1603	218
1	1572	219
1	1895	160
1	1858	161
1	1828	162
1	1800	163
1	1782	164
1	1779	165
1	1791	166
1	1814	167
1	1832	168
1	1860	169
1	1881	170
1	1895	171
1	1899	172
1	1895	173
1	1878	174
1	1856	175
1	1837	176
1	1803	177
1	1769	178
1	1735	179
1	1539	220
1	1517	221
1	1494	222
1	1485	223
1	1490	224
1	1504	225
1	1529	226
1	1556	227
1	1592	228
1	1624	229
1	1646	230
1	1661	231
1	1663	232
1	1661	233
1	1651	234
1	1631	235
1	1605	236
1	1572	237
1	1536	238
1	1495	239
1	1460	240
1	1437	241
1	1423	242
1	1417	243
1	1424	244
1	1432	245
1	1449	246
1	1477	247
1	1517	248
1	1559	249
1	1597	250
1	1634	251
1	1662	252
1	1685	253
1	1692	254
1	1693	255
1	1686	256
1	1664	257
1	1634	258
1	1596	259
1	1706	280
1	1664	281
1	1620	282
1	1581	283
1	1543	284
1	1521	285
1	1520	286
1	1531	287
1	1553	288
1	1576	289
1	1587	290
1	1595	291
1	1594	292
1	1585	293
1	1567	294
1	1540	295
1	1514	296
1	1489	297
1	1474	298
1	1448	299
1	1543	280
1	1490	281
1	1448	282
1	1424	283
1	1419	284
1	1433	285
1	1459	286
1	1494	287
1	1537	288
1	1582	289
1	1634	290
1	1685	291
1	1733	292
1	1770	293
1	1802	294
1	1818	295
1	1817	296
1	1802	297
1	1778	298
1	1744	299
1	1422	300
1	1400	301
1	1393	302
1	1392	303
1	1401	304
1	1424	305
1	1455	306
1	1500	307
1	1547	308
1	1599	309
1	1654	310
1	1707	311
1	1751	312
1	1782	313
1	1794	314
1	1801	315
1	1791	316
1	1765	317
1	1729	318
1	1687	319
1	1635	320
1	1598	321
1	1566	322
1	1552	323
1	1533	324
1	1530	325
1	1543	326
1	1566	327
1	1594	328
1	1623	329
1	1646	330
1	1662	331
1	1673	332
1	1674	333
1	1671	334
1	1660	335
1	1652	336
1	1629	337
1	1602	338
1	1565	339
1	1545	400
1	1521	401
1	1503	402
1	1494	403
1	1490	404
1	1490	405
1	1495	406
1	1503	407
1	1516	408
1	1539	409
1	1556	410
1	1575	411
1	1581	412
1	1581	413
1	1576	414
1	1568	415
1	1553	416
1	1533	417
1	1520	418
1	1507	419
1	1599	380
1	1587	381
1	1577	382
1	1571	383
1	1572	384
1	1580	385
1	1596	386
1	1625	387
1	1660	388
1	1685	389
1	1703	390
1	1718	391
1	1727	392
1	1728	393
1	1724	394
1	1710	395
1	1685	396
1	1649	397
1	1619	398
1	1579	399
1	1633	380
1	1594	381
1	1558	382
1	1529	383
1	1511	384
1	1501	385
1	1503	386
1	1516	387
1	1528	388
1	1543	389
1	1563	390
1	1593	391
1	1621	392
1	1646	393
1	1660	394
1	1663	395
1	1660	396
1	1649	397
1	1634	398
1	1617	399
1	1529	340
1	1497	341
1	1474	342
1	1463	343
1	1464	344
1	1478	345
1	1501	346
1	1534	347
1	1571	348
1	1620	349
1	1665	350
1	1710	351
1	1742	352
1	1765	353
1	1782	354
1	1787	355
1	1777	356
1	1751	357
1	1714	358
1	1668	359
1	1510	420
1	1524	421
1	1544	422
1	1576	423
1	1607	424
1	1643	425
1	1669	426
1	1690	427
1	1713	428
1	1728	429
1	1739	430
1	1749	431
1	1743	432
1	1729	433
1	1699	434
1	1660	435
1	1623	436
1	1574	437
1	1528	438
1	1477	439
1	1433	460
1	1398	461
1	1376	462
1	1372	463
1	1381	464
1	1413	465
1	1455	466
1	1508	467
1	1561	468
1	1607	469
1	1647	470
1	1689	471
1	1728	472
1	1751	473
1	1770	474
1	1769	475
1	1756	476
1	1733	477
1	1699	478
1	1665	479
1	1632	460
1	1595	461
1	1568	462
1	1549	463
1	1532	464
1	1529	465
1	1535	466
1	1548	467
1	1564	468
1	1581	469
1	1591	470
1	1594	471
1	1595	472
1	1605	473
1	1615	474
1	1620	475
1	1615	476
1	1604	477
1	1585	478
1	1559	479
1	1537	480
1	1512	481
1	1481	482
1	1452	483
1	1445	484
1	1450	485
1	1476	486
1	1512	487
1	1553	488
1	1594	489
1	1636	490
1	1681	491
1	1712	492
1	1733	493
1	1736	494
1	1733	495
1	1723	496
1	1707	497
1	1684	498
1	1669	499
1	1647	500
1	1623	501
1	1602	502
1	1589	503
1	1581	504
1	1580	505
1	1574	506
1	1574	507
1	1577	508
1	1579	509
1	1584	510
1	1594	511
1	1603	512
1	1608	513
1	1620	514
1	1622	515
1	1618	516
1	1612	517
1	1605	518
1	1594	519
1	1587	520
1	1589	521
1	1584	522
1	1590	523
1	1597	524
1	1610	525
1	1631	526
1	1647	527
1	1669	528
1	1691	529
1	1710	530
1	1721	531
1	1730	532
1	1731	533
1	1738	534
1	1733	535
1	1716	536
1	1697	537
1	1668	538
1	1632	539
1	1595	540
1	1564	541
1	1542	542
1	1525	543
1	1515	544
1	1504	545
1	1503	546
1	1514	547
1	1526	548
1	1543	549
1	1564	550
1	1585	551
1	1602	552
1	1613	553
1	1616	554
1	1613	555
1	1607	556
1	1593	557
1	1573	558
1	1549	559
1	1520	560
1	1497	561
1	1489	562
1	1490	563
1	1503	564
1	1525	565
1	1555	566
1	1592	567
1	1628	568
1	1660	569
1	1689	570
1	1709	571
1	1711	572
1	1701	573
1	1686	574
1	1657	575
1	1619	576
1	1581	577
1	1541	578
1	1503	579
1	1684	600
1	1665	601
1	1651	602
1	1634	603
1	1634	604
1	1632	605
1	1634	606
1	1638	607
1	1642	608
1	1645	609
1	1647	610
1	1656	611
1	1664	612
1	1665	613
1	1656	614
1	1642	615
1	1617	616
1	1584	617
1	1551	618
1	1529	619
1	1471	600
1	1440	601
1	1424	602
1	1423	603
1	1426	604
1	1438	605
1	1455	606
1	1485	607
1	1524	608
1	1577	609
1	1626	610
1	1672	611
1	1712	612
1	1744	613
1	1760	614
1	1764	615
1	1759	616
1	1739	617
1	1721	618
1	1700	619
1	1504	620
1	1498	621
1	1499	622
1	1519	623
1	1542	624
1	1577	625
1	1625	626
1	1679	627
1	1718	628
1	1752	629
1	1778	630
1	1790	631
1	1779	632
1	1749	633
1	1704	634
1	1650	635
1	1589	636
1	1527	637
1	1476	638
1	1433	639
1	1406	640
1	1394	641
1	1398	642
1	1424	643
1	1452	644
1	1492	645
1	1539	646
1	1592	647
1	1645	648
1	1708	649
1	1757	650
1	1793	651
1	1821	652
1	1831	653
1	1827	654
1	1817	655
1	1791	656
1	1764	657
1	1738	658
1	1708	659
1	1677	680
1	1650	681
1	1632	682
1	1620	683
1	1620	684
1	1625	685
1	1634	686
1	1647	687
1	1664	688
1	1687	689
1	1711	690
1	1728	691
1	1736	692
1	1728	693
1	1709	694
1	1684	695
1	1651	696
1	1622	697
1	1593	698
1	1573	699
1	1692	700
1	1674	701
1	1657	702
1	1633	703
1	1609	704
1	1594	705
1	1582	706
1	1581	707
1	1587	708
1	1600	709
1	1610	710
1	1622	711
1	1634	712
1	1648	713
1	1652	714
1	1647	715
1	1636	716
1	1616	717
1	1589	718
1	1555	719
1	1554	680
1	1539	681
1	1537	682
1	1542	683
1	1555	684
1	1580	685
1	1607	686
1	1644	687
1	1679	688
1	1698	689
1	1713	690
1	1726	691
1	1729	692
1	1734	693
1	1742	694
1	1750	695
1	1751	696
1	1746	697
1	1737	698
1	1712	699
1	1529	740
1	1508	741
1	1499	742
1	1498	743
1	1508	744
1	1535	745
1	1557	746
1	1582	747
1	1622	748
1	1660	749
1	1701	750
1	1726	751
1	1738	752
1	1742	753
1	1727	754
1	1705	755
1	1681	756
1	1652	757
1	1628	758
1	1605	759
1	1581	760
1	1567	761
1	1568	762
1	1573	763
1	1589	764
1	1608	765
1	1638	766
1	1670	767
1	1700	768
1	1724	769
1	1751	770
1	1769	771
1	1781	772
1	1780	773
1	1770	774
1	1738	775
1	1692	776
1	1639	777
1	1587	778
1	1537	779
1	1492	780
1	1465	781
1	1456	782
1	1462	783
1	1476	784
1	1503	785
1	1546	786
1	1594	787
1	1643	788
1	1698	789
1	1755	790
1	1818	791
1	1878	792
1	1932	793
1	1976	794
1	2021	795
1	2065	796
1	2111	797
1	2156	798
1	2193	799
1	2236	780
1	2274	781
1	2315	782
1	2364	783
1	2408	784
1	2436	785
1	2459	786
1	2474	787
1	2487	788
1	2492	789
1	2489	790
1	2480	791
1	2456	792
1	2423	793
1	2371	794
1	2315	795
1	2254	796
1	2170	797
1	2086	798
1	2006	799
1	1914	800
1	1822	801
1	1730	802
1	1645	803
1	1564	804
1	1490	805
1	1427	806
1	1372	807
1	1333	808
1	1309	809
1	1304	810
1	1310	811
1	1320	812
1	1330	813
1	1343	814
1	1351	815
1	1359	816
1	1364	817
1	1371	818
1	1374	819
1	1693	840
1	1678	841
1	1657	842
1	1634	843
1	1615	844
1	1589	845
1	1560	846
1	1531	847
1	1503	848
1	1482	849
1	1475	850
1	1481	851
1	1503	852
1	1530	853
1	1557	854
1	1589	855
1	1615	856
1	1637	857
1	1655	858
1	1667	859
1	1382	820
1	1384	821
1	1393	822
1	1409	823
1	1428	824
1	1453	825
1	1479	826
1	1507	827
1	1533	828
1	1563	829
1	1584	830
1	1613	831
1	1647	832
1	1680	833
1	1700	834
1	1715	835
1	1726	836
1	1734	837
1	1729	838
1	1711	839
1	1674	860
1	1677	861
1	1683	862
1	1686	863
1	1693	864
1	1707	865
1	1728	866
1	1755	867
1	1791	868
1	1827	869
1	1857	870
1	1883	871
1	1895	872
1	1904	873
1	1908	874
1	1897	875
1	1880	876
1	1843	877
1	1788	878
1	1719	879
1	1645	900
1	1608	901
1	1581	902
1	1563	903
1	1556	904
1	1555	905
1	1561	906
1	1574	907
1	1593	908
1	1608	909
1	1625	910
1	1641	911
1	1660	912
1	1679	913
1	1693	914
1	1711	915
1	1720	916
1	1716	917
1	1714	918
1	1723	919
1	1660	880
1	1608	881
1	1580	882
1	1562	883
1	1559	884
1	1579	885
1	1613	886
1	1661	887
1	1712	888
1	1764	889
1	1800	890
1	1832	891
1	1841	892
1	1841	893
1	1831	894
1	1817	895
1	1791	896
1	1765	897
1	1731	898
1	1686	899
1	1724	920
1	1733	921
1	1729	922
1	1739	923
1	1738	924
1	1744	925
1	1760	926
1	1777	927
1	1796	928
1	1821	929
1	1843	930
1	1860	931
1	1870	932
1	1869	933
1	1859	934
1	1841	935
1	1817	936
1	1791	937
1	1773	938
1	1762	939
1	1744	940
1	1737	941
1	1738	942
1	1751	943
1	1769	944
1	1794	945
1	1826	946
1	1849	947
1	1868	948
1	1885	949
1	1885	950
1	1886	951
1	1883	952
1	1880	953
1	1869	954
1	1852	955
1	1833	956
1	1811	957
1	1782	958
1	1751	959
1	1724	960
1	1701	961
1	1686	962
1	1677	963
1	1679	964
1	1680	965
1	1686	966
1	1701	967
1	1718	968
1	1739	969
1	1764	970
1	1790	971
1	1814	972
1	1827	973
1	1828	974
1	1823	975
1	1812	976
1	1791	977
1	1777	978
1	1769	979
1	1769	980
1	1782	981
1	1801	982
1	1822	983
1	1842	984
1	1868	985
1	1895	986
1	1922	987
1	1952	988
1	1973	989
1	1998	990
1	2024	991
1	2050	992
1	2065	993
1	2078	994
1	2079	995
1	2079	996
1	2073	997
1	2057	998
1	2037	999
1	2014	1000
1	1994	1001
1	1977	1002
1	1965	1003
1	1949	1004
1	1937	1005
1	1931	1006
1	1933	1007
1	1944	1008
1	1970	1009
1	1997	1010
1	2026	1011
1	2053	1012
1	2076	1013
1	2091	1014
1	2105	1015
1	2114	1016
1	2123	1017
1	2128	1018
1	2122	1019
1	2115	1020
1	2106	1021
1	2096	1022
1	2080	1023
1	2066	1024
1	2052	1025
1	2025	1026
1	1994	1027
1	1980	1028
1	1967	1029
1	1965	1030
1	1973	1031
1	1983	1032
1	1989	1033
1	1994	1034
1	1991	1035
1	1985	1036
1	1974	1037
1	1958	1038
1	1935	1039
1	1901	1040
1	1869	1041
1	1842	1042
1	1824	1043
1	1809	1044
1	1796	1045
1	1793	1046
1	1798	1047
1	1812	1048
1	1821	1049
1	1843	1050
1	1868	1051
1	1886	1052
1	1896	1053
1	1904	1054
1	1892	1055
1	1866	1056
1	1821	1057
1	1769	1058
1	1720	1059
1	1678	1060
1	1644	1061
1	1620	1062
1	1608	1063
1	1598	1064
1	1600	1065
1	1607	1066
1	1620	1067
1	1633	1068
1	1647	1069
1	1660	1070
1	1665	1071
1	1666	1072
1	1659	1073
1	1646	1074
1	1634	1075
1	1626	1076
1	1618	1077
1	1607	1078
1	1582	1079
1	1562	1080
1	1544	1081
1	1526	1082
1	1511	1083
1	1503	1084
1	1495	1085
1	1502	1086
1	1521	1087
1	1544	1088
1	1571	1089
1	1605	1090
1	1638	1091
1	1660	1092
1	1662	1093
1	1649	1094
1	1622	1095
1	1589	1096
1	1548	1097
1	1503	1098
1	1471	1099
1	1437	1100
1	1413	1101
1	1404	1102
1	1406	1103
1	1418	1104
1	1433	1105
1	1459	1106
1	1491	1107
1	1530	1108
1	1566	1109
1	1594	1110
1	1622	1111
1	1642	1112
1	1652	1113
1	1659	1114
1	1652	1115
1	1634	1116
1	1616	1117
1	1593	1118
1	1561	1119
1	1527	1120
1	1499	1121
1	1466	1122
1	1447	1123
1	1436	1124
1	1436	1125
1	1442	1126
1	1455	1127
1	1476	1128
1	1497	1129
1	1515	1130
1	1537	1131
1	1553	1132
1	1565	1133
1	1581	1134
1	1589	1135
1	1589	1136
1	1587	1137
1	1580	1138
1	1559	1139
1	1545	1140
1	1536	1141
1	1530	1142
1	1530	1143
1	1542	1144
1	1554	1145
1	1573	1146
1	1585	1147
1	1595	1148
1	1605	1149
1	1607	1150
1	1608	1151
1	1607	1152
1	1600	1153
1	1593	1154
1	1582	1155
1	1579	1156
1	1569	1157
1	1562	1158
1	1566	1159
1	1563	1160
1	1565	1161
1	1567	1162
1	1570	1163
1	1567	1164
1	1561	1165
1	1557	1166
1	1556	1167
1	1556	1168
1	1549	1169
1	1542	1170
1	1534	1171
1	1528	1172
1	1515	1173
1	1503	1174
1	1484	1175
1	1467	1176
1	1449	1177
1	1427	1178
1	1411	1179
1	1404	1180
1	1409	1181
1	1424	1182
1	1445	1183
1	1467	1184
1	1491	1185
1	1525	1186
1	1557	1187
1	1596	1188
1	1636	1189
1	1660	1190
1	1677	1191
1	1679	1192
1	1667	1193
1	1637	1194
1	1598	1195
1	1553	1196
1	1503	1197
1	1464	1198
1	1429	1199
1	1400	1200
1	1382	1201
1	1380	1202
1	1397	1203
1	1427	1204
1	1459	1205
1	1501	1206
1	1538	1207
1	1574	1208
1	1610	1209
1	1644	1210
1	1675	1211
1	1703	1212
1	1717	1213
1	1713	1214
1	1710	1215
1	1698	1216
1	1685	1217
1	1665	1218
1	1651	1219
1	1629	1220
1	1609	1221
1	1589	1222
1	1579	1223
1	1557	1224
1	1553	1225
1	1554	1226
1	1558	1227
1	1564	1228
1	1571	1229
1	1581	1230
1	1602	1231
1	1621	1232
1	1644	1233
1	1660	1234
1	1665	1235
1	1661	1236
1	1656	1237
1	1648	1238
1	1643	1239
1	1628	1240
1	1608	1241
1	1593	1242
1	1580	1243
1	1567	1244
1	1571	1245
1	1581	1246
1	1595	1247
1	1611	1248
1	1634	1249
1	1638	1250
1	1638	1251
1	1634	1252
1	1621	1253
1	1597	1254
1	1569	1255
1	1542	1256
1	1519	1257
1	1502	1258
1	1477	1259
1	1458	1260
1	1445	1261
1	1441	1262
1	1459	1263
1	1490	1264
1	1521	1265
1	1555	1266
1	1581	1267
1	1602	1268
1	1616	1269
1	1625	1270
1	1634	1271
1	1634	1272
1	1624	1273
1	1603	1274
1	1574	1275
1	1542	1276
1	1513	1277
1	1495	1278
1	1489	1279
1	1476	1280
1	1470	1281
1	1471	1282
1	1481	1283
1	1503	1284
1	1525	1285
1	1551	1286
1	1580	1287
1	1607	1288
1	1631	1289
1	1649	1290
1	1669	1291
1	1683	1292
1	1686	1293
1	1686	1294
1	1665	1295
1	1636	1296
1	1607	1297
1	1580	1298
1	1560	1299
1	1553	1300
1	1553	1301
1	1564	1302
1	1582	1303
1	1607	1304
1	1633	1305
1	1661	1306
1	1691	1307
1	1721	1308
1	1747	1309
1	1751	1310
1	1744	1311
1	1726	1312
1	1699	1313
1	1663	1314
1	1631	1315
1	1592	1316
1	1549	1317
1	1505	1318
1	1458	1319
1	1415	1320
1	1373	1321
1	1355	1322
1	1348	1323
1	1367	1324
1	1399	1325
1	1435	1326
1	1490	1327
1	1546	1328
1	1595	1329
1	1647	1330
1	1695	1331
1	1733	1332
1	1751	1333
1	1755	1334
1	1750	1335
1	1734	1336
1	1710	1337
1	1684	1338
1	1658	1339
1	1633	1340
1	1611	1341
1	1598	1342
1	1587	1343
1	1573	1344
1	1560	1345
1	1556	1346
1	1561	1347
1	1568	1348
1	1566	1349
1	1555	1350
1	1550	1351
1	1550	1352
1	1556	1353
1	1573	1354
1	1581	1355
1	1584	1356
1	1584	1357
1	1582	1358
1	1581	1359
1	1574	1360
1	1563	1361
1	1555	1362
1	1555	1363
1	1555	1364
1	1561	1365
1	1566	1366
1	1569	1367
1	1575	1368
1	1589	1369
1	1602	1370
1	1618	1371
1	1634	1372
1	1647	1373
1	1654	1374
1	1654	1375
1	1646	1376
1	1634	1377
1	1629	1378
1	1617	1379
1	1608	1380
1	1607	1381
1	1607	1382
1	1612	1383
1	1629	1384
1	1639	1385
1	1653	1386
1	1660	1387
1	1662	1388
1	1661	1389
1	1657	1390
1	1658	1391
1	1660	1392
1	1657	1393
1	1638	1394
1	1611	1395
1	1580	1396
1	1544	1397
1	1508	1398
1	1480	1399
1	1451	1400
1	1433	1401
1	1422	1402
1	1422	1403
1	1432	1404
1	1450	1405
1	1488	1406
1	1530	1407
1	1581	1408
1	1626	1409
1	1671	1410
1	1710	1411
1	1736	1412
1	1743	1413
1	1751	1414
1	1744	1415
1	1728	1416
1	1701	1417
1	1667	1418
1	1634	1419
1	1602	1420
1	1569	1421
1	1543	1422
1	1518	1423
1	1507	1424
1	1503	1425
1	1517	1426
1	1534	1427
1	1559	1428
1	1585	1429
1	1605	1430
1	1625	1431
1	1634	1432
1	1645	1433
1	1657	1434
1	1661	1435
1	1660	1436
1	1648	1437
1	1635	1438
1	1613	1439
1	1599	1440
1	1585	1441
1	1567	1442
1	1553	1443
1	1542	1444
1	1531	1445
1	1537	1446
1	1554	1447
1	1580	1448
1	1607	1449
1	1647	1450
1	1688	1451
1	1727	1452
1	1762	1453
1	1785	1454
1	1800	1455
1	1800	1456
1	1777	1457
1	1742	1458
1	1703	1459
1	1632	1480
1	1589	1481
1	1547	1482
1	1508	1483
1	1476	1484
1	1453	1485
1	1449	1486
1	1460	1487
1	1481	1488
1	1517	1489
1	1553	1490
1	1587	1491
1	1623	1492
1	1657	1493
1	1685	1494
1	1706	1495
1	1718	1496
1	1726	1497
1	1728	1498
1	1721	1499
1	1658	1460
1	1609	1461
1	1574	1462
1	1546	1463
1	1530	1464
1	1533	1465
1	1555	1466
1	1584	1467
1	1619	1468
1	1649	1469
1	1679	1470
1	1704	1471
1	1725	1472
1	1739	1473
1	1753	1474
1	1760	1475
1	1751	1476
1	1731	1477
1	1701	1478
1	1668	1479
1	1713	1500
1	1712	1501
1	1711	1502
1	1710	1503
1	1702	1504
1	1686	1505
1	1668	1506
1	1655	1507
1	1647	1508
1	1646	1509
1	1647	1510
1	1649	1511
1	1652	1512
1	1652	1513
1	1647	1514
1	1644	1515
1	1642	1516
1	1638	1517
1	1638	1518
1	1642	1519
1	1639	1520
1	1634	1521
1	1638	1522
1	1634	1523
1	1633	1524
1	1634	1525
1	1645	1526
1	1658	1527
1	1667	1528
1	1676	1529
1	1686	1530
1	1697	1531
1	1706	1532
1	1717	1533
1	1726	1534
1	1727	1535
1	1716	1536
1	1698	1537
1	1674	1538
1	1656	1539
1	1629	1540
1	1603	1541
1	1581	1542
1	1566	1543
1	1548	1544
1	1546	1545
1	1552	1546
1	1558	1547
1	1573	1548
1	1592	1549
1	1602	1550
1	1608	1551
1	1620	1552
1	1626	1553
1	1633	1554
1	1634	1555
1	1634	1556
1	1625	1557
1	1608	1558
1	1584	1559
1	1564	1560
1	1548	1561
1	1539	1562
1	1531	1563
1	1530	1564
1	1529	1565
1	1530	1566
1	1541	1567
1	1555	1568
1	1569	1569
1	1589	1570
1	1613	1571
1	1638	1572
1	1660	1573
1	1665	1574
1	1673	1575
1	1674	1576
1	1668	1577
1	1656	1578
1	1639	1579
1	1616	1580
1	1593	1581
1	1580	1582
1	1573	1583
1	1584	1584
1	1613	1585
1	1658	1586
1	1703	1587
1	1746	1588
1	1783	1589
1	1817	1590
1	1837	1591
1	1843	1592
1	1836	1593
1	1818	1594
1	1787	1595
1	1751	1596
1	1706	1597
1	1652	1598
1	1594	1599
1	1539	1600
1	1492	1601
1	1455	1602
1	1435	1603
1	1423	1604
1	1425	1605
1	1450	1606
1	1491	1607
1	1538	1608
1	1589	1609
1	1634	1610
1	1675	1611
1	1712	1612
1	1749	1613
1	1778	1614
1	1795	1615
1	1816	1616
1	1830	1617
1	1848	1618
1	1866	1619
1	2147	1640
1	2091	1641
1	2027	1642
1	1966	1643
1	1900	1644
1	1836	1645
1	1765	1646
1	1701	1647
1	1640	1648
1	1578	1649
1	1529	1650
1	1485	1651
1	1447	1652
1	1421	1653
1	1399	1654
1	1377	1655
1	1357	1656
1	1341	1657
1	1319	1658
1	1297	1659
1	1894	1620
1	1931	1621
1	1978	1622
1	2035	1623
1	2104	1624
1	2163	1625
1	2215	1626
1	2284	1627
1	2336	1628
1	2377	1629
1	2410	1630
1	2433	1631
1	2440	1632
1	2431	1633
1	2404	1634
1	2368	1635
1	2332	1636
1	2288	1637
1	2242	1638
1	2189	1639
1	1279	1660
1	1267	1661
1	1267	1662
1	1271	1663
1	1284	1664
1	1305	1665
1	1332	1666
1	1364	1667
1	1404	1668
1	1449	1669
1	1490	1670
1	1531	1671
1	1569	1672
1	1590	1673
1	1605	1674
1	1609	1675
1	1613	1676
1	1620	1677
1	1625	1678
1	1623	1679
1	1618	1680
1	1607	1681
1	1602	1682
1	1598	1683
1	1598	1684
1	1595	1685
1	1596	1686
1	1606	1687
1	1620	1688
1	1642	1689
1	1663	1690
1	1691	1691
1	1720	1692
1	1746	1693
1	1760	1694
1	1770	1695
1	1777	1696
1	1773	1697
1	1760	1698
1	1741	1699
1	1718	1700
1	1693	1701
1	1674	1702
1	1662	1703
1	1661	1704
1	1660	1705
1	1660	1706
1	1662	1707
1	1671	1708
1	1674	1709
1	1680	1710
1	1688	1711
1	1698	1712
1	1705	1713
1	1712	1714
1	1717	1715
1	1721	1716
1	1720	1717
1	1712	1718
1	1705	1719
1	1698	1720
1	1689	1721
1	1674	1722
1	1664	1723
1	1658	1724
1	1658	1725
1	1662	1726
1	1675	1727
1	1693	1728
1	1718	1729
1	1751	1730
1	1785	1731
1	1821	1732
1	1850	1733
1	1876	1734
1	1881	1735
1	1869	1736
1	1845	1737
1	1816	1738
1	1764	1739
1	1728	1740
1	1686	1741
1	1649	1742
1	1628	1743
1	1625	1744
1	1631	1745
1	1644	1746
1	1669	1747
1	1699	1748
1	1728	1749
1	1747	1750
1	1764	1751
1	1770	1752
1	1778	1753
1	1769	1754
1	1760	1755
1	1746	1756
1	1723	1757
1	1697	1758
1	1679	1759
1	1661	1760
1	1658	1761
1	1665	1762
1	1688	1763
1	1721	1764
1	1755	1765
1	1791	1766
1	1833	1767
1	1869	1768
1	1891	1769
1	1896	1770
1	1894	1771
1	1879	1772
1	1856	1773
1	1833	1774
1	1795	1775
1	1762	1776
1	1733	1777
1	1708	1778
1	1692	1779
1	1685	1780
1	1682	1781
1	1687	1782
1	1701	1783
1	1713	1784
1	1737	1785
1	1759	1786
1	1775	1787
1	1791	1788
1	1809	1789
1	1812	1790
1	1800	1791
1	1791	1792
1	1780	1793
1	1773	1794
1	1765	1795
1	1772	1796
1	1791	1797
1	1822	1798
1	1845	1799
1	1870	1800
1	1895	1801
1	1919	1802
1	1943	1803
1	1968	1804
1	1981	1805
1	1989	1806
1	1986	1807
1	1975	1808
1	1961	1809
1	1943	1810
1	1921	1811
1	1898	1812
1	1883	1813
1	1869	1814
1	1862	1815
1	1861	1816
1	1857	1817
1	1852	1818
1	1851	1819
1	1843	1820
1	1834	1821
1	1843	1822
1	1845	1823
1	1847	1824
1	1857	1825
1	1865	1826
1	1877	1827
1	1899	1828
1	1923	1829
1	1953	1830
1	1989	1831
1	2025	1832
1	2057	1833
1	2079	1834
1	2096	1835
1	2101	1836
1	2094	1837
1	2083	1838
1	2076	1839
1	2052	1840
1	2018	1841
1	1979	1842
1	1947	1843
1	1910	1844
1	1895	1845
1	1888	1846
1	1890	1847
1	1899	1848
1	1925	1849
1	1956	1850
1	1994	1851
1	2032	1852
1	2066	1853
1	2093	1854
1	2105	1855
1	2111	1856
1	2111	1857
1	2104	1858
1	2079	1859
1	2060	1860
1	2038	1861
1	2021	1862
1	2011	1863
1	2012	1864
1	2015	1865
1	2028	1866
1	2052	1867
1	2075	1868
1	2097	1869
1	2118	1870
1	2136	1871
1	2154	1872
1	2159	1873
1	2156	1874
1	2147	1875
1	2132	1876
1	2108	1877
1	2080	1878
1	2057	1879
1	2025	1880
1	1996	1881
1	1974	1882
1	1961	1883
1	1957	1884
1	1953	1885
1	1957	1886
1	1965	1887
1	1978	1888
1	1981	1889
1	1987	1890
1	1983	1891
1	1973	1892
1	1957	1893
1	1942	1894
1	1914	1895
1	1890	1896
1	1868	1897
1	1848	1898
1	1839	1899
1	1837	1900
1	1843	1901
1	1849	1902
1	1859	1903
1	1857	1904
1	1856	1905
1	1849	1906
1	1839	1907
1	1829	1908
1	1818	1909
1	1801	1910
1	1791	1911
1	1775	1912
1	1751	1913
1	1721	1914
1	1688	1915
1	1649	1916
1	1607	1917
1	1566	1918
1	1525	1919
1	1484	1920
1	1456	1921
1	1441	1922
1	1430	1923
1	1437	1924
1	1458	1925
1	1488	1926
1	1524	1927
1	1577	1928
1	1626	1929
1	1681	1930
1	1734	1931
1	1775	1932
1	1802	1933
1	1809	1934
1	1787	1935
1	1742	1936
1	1689	1937
1	1635	1938
1	1585	1939
1	1541	1940
1	1503	1941
1	1479	1942
1	1479	1943
1	1487	1944
1	1502	1945
1	1521	1946
1	1546	1947
1	1580	1948
1	1616	1949
1	1654	1950
1	1687	1951
1	1711	1952
1	1727	1953
1	1739	1954
1	1738	1955
1	1726	1956
1	1708	1957
1	1685	1958
1	1657	1959
1	1629	1960
1	1599	1961
1	1580	1962
1	1565	1963
1	1556	1964
1	1562	1965
1	1574	1966
1	1583	1967
1	1595	1968
1	1609	1969
1	1620	1970
1	1633	1971
1	1638	1972
1	1641	1973
1	1639	1974
1	1634	1975
1	1625	1976
1	1605	1977
1	1580	1978
1	1551	1979
1	1528	1980
1	1511	1981
1	1504	1982
1	1510	1983
1	1532	1984
1	1555	1985
1	1593	1986
1	1635	1987
1	1682	1988
1	1714	1989
1	1741	1990
1	1762	1991
1	1762	1992
1	1746	1993
1	1716	1994
1	1685	1995
1	1649	1996
1	1613	1997
1	1581	1998
1	1555	1999
1	1536	2000
1	1528	2001
1	1521	2002
1	1514	2003
1	1505	2004
1	1503	2005
1	1505	2006
1	1517	2007
1	1538	2008
1	1557	2009
1	1589	2010
1	1623	2011
1	1657	2012
1	1684	2013
1	1701	2014
1	1708	2015
1	1700	2016
1	1686	2017
1	1673	2018
1	1660	2019
1	1644	2020
1	1635	2021
1	1644	2022
1	1659	2023
1	1674	2024
1	1692	2025
1	1713	2026
1	1736	2027
1	1744	2028
1	1749	2029
1	1751	2030
1	1751	2031
1	1744	2032
1	1738	2033
1	1723	2034
1	1708	2035
1	1686	2036
1	1658	2037
1	1632	2038
1	1600	2039
1	1570	2040
1	1542	2041
1	1530	2042
1	1530	2043
1	1546	2044
1	1570	2045
1	1605	2046
1	1638	2047
1	1671	2048
1	1698	2049
1	1712	2050
1	1714	2051
1	1712	2052
1	1705	2053
1	1686	2054
1	1664	2055
1	1635	2056
1	1603	2057
1	1570	2058
1	1544	2059
1	1696	2080
1	1660	2081
1	1623	2082
1	1589	2083
1	1555	2084
1	1530	2085
1	1517	2086
1	1517	2087
1	1526	2088
1	1547	2089
1	1565	2090
1	1590	2091
1	1620	2092
1	1651	2093
1	1685	2094
1	1711	2095
1	1730	2096
1	1746	2097
1	1757	2098
1	1755	2099
1	1751	2100
1	1738	2101
1	1718	2102
1	1697	2103
1	1682	2104
1	1662	2105
1	1650	2106
1	1645	2107
1	1647	2108
1	1658	2109
1	1679	2110
1	1709	2111
1	1738	2112
1	1764	2113
1	1778	2114
1	1790	2115
1	1795	2116
1	1796	2117
1	1791	2118
1	1777	2119
1	1523	2060
1	1510	2061
1	1508	2062
1	1523	2063
1	1548	2064
1	1582	2065
1	1619	2066
1	1652	2067
1	1684	2068
1	1704	2069
1	1725	2070
1	1742	2071
1	1760	2072
1	1769	2073
1	1782	2074
1	1782	2075
1	1775	2076
1	1764	2077
1	1752	2078
1	1727	2079
1	1740	2120
1	1697	2121
1	1649	2122
1	1607	2123
1	1569	2124
1	1547	2125
1	1535	2126
1	1537	2127
1	1547	2128
1	1564	2129
1	1593	2130
1	1631	2131
1	1668	2132
1	1702	2133
1	1723	2134
1	1737	2135
1	1732	2136
1	1712	2137
1	1682	2138
1	1654	2139
1	1623	2140
1	1598	2141
1	1580	2142
1	1576	2143
1	1580	2144
1	1593	2145
1	1616	2146
1	1643	2147
1	1670	2148
1	1697	2149
1	1711	2150
1	1722	2151
1	1729	2152
1	1728	2153
1	1724	2154
1	1713	2155
1	1699	2156
1	1686	2157
1	1665	2158
1	1636	2159
1	1614	2160
1	1596	2161
1	1585	2162
1	1586	2163
1	1598	2164
1	1608	2165
1	1626	2166
1	1648	2167
1	1675	2168
1	1703	2169
1	1733	2170
1	1760	2171
1	1782	2172
1	1791	2173
1	1787	2174
1	1775	2175
1	1754	2176
1	1726	2177
1	1695	2178
1	1667	2179
1	1636	2180
1	1611	2181
1	1590	2182
1	1572	2183
1	1556	2184
1	1548	2185
1	1552	2186
1	1561	2187
1	1582	2188
1	1602	2189
1	1637	2190
1	1682	2191
1	1723	2192
1	1752	2193
1	1778	2194
1	1783	2195
1	1775	2196
1	1751	2197
1	1714	2198
1	1674	2199
1	1634	2200
1	1605	2201
1	1584	2202
1	1581	2203
1	1581	2204
1	1607	2205
1	1646	2206
1	1686	2207
1	1721	2208
1	1751	2209
1	1769	2210
1	1783	2211
1	1786	2212
1	1779	2213
1	1766	2214
1	1752	2215
1	1733	2216
1	1703	2217
1	1667	2218
1	1630	2219
1	1598	2220
1	1577	2221
1	1555	2222
1	1547	2223
1	1555	2224
1	1569	2225
1	1593	2226
1	1638	2227
1	1684	2228
1	1715	2229
1	1739	2230
1	1754	2231
1	1764	2232
1	1764	2233
1	1755	2234
1	1739	2235
1	1714	2236
1	1686	2237
1	1658	2238
1	1633	2239
1	1610	2240
1	1596	2241
1	1589	2242
1	1596	2243
1	1607	2244
1	1630	2245
1	1652	2246
1	1673	2247
1	1690	2248
1	1698	2249
1	1707	2250
1	1718	2251
1	1723	2252
1	1716	2253
1	1709	2254
1	1685	2255
1	1658	2256
1	1624	2257
1	1587	2258
1	1550	2259
1	1526	2260
1	1521	2261
1	1531	2262
1	1555	2263
1	1579	2264
1	1597	2265
1	1615	2266
1	1631	2267
1	1647	2268
1	1668	2269
1	1691	2270
1	1716	2271
1	1739	2272
1	1756	2273
1	1764	2274
1	1766	2275
1	1764	2276
1	1760	2277
1	1753	2278
1	1742	2279
1	1632	2300
1	1624	2301
1	1620	2302
1	1625	2303
1	1633	2304
1	1641	2305
1	1657	2306
1	1679	2307
1	1705	2308
1	1728	2309
1	1751	2310
1	1770	2311
1	1787	2312
1	1800	2313
1	1817	2314
1	1816	2315
1	1799	2316
1	1778	2317
1	1754	2318
1	1730	2319
1	1736	2280
1	1724	2281
1	1711	2282
1	1697	2283
1	1685	2284
1	1664	2285
1	1644	2286
1	1630	2287
1	1626	2288
1	1632	2289
1	1647	2290
1	1667	2291
1	1680	2292
1	1685	2293
1	1679	2294
1	1671	2295
1	1661	2296
1	1647	2297
1	1638	2298
1	1636	2299
1	1623	2340
1	1607	2341
1	1595	2342
1	1586	2343
1	1585	2344
1	1585	2345
1	1593	2346
1	1607	2347
1	1630	2348
1	1651	2349
1	1674	2350
1	1697	2351
1	1716	2352
1	1736	2353
1	1747	2354
1	1757	2355
1	1769	2356
1	1773	2357
1	1773	2358
1	1766	2359
1	1697	2320
1	1669	2321
1	1646	2322
1	1625	2323
1	1609	2324
1	1598	2325
1	1593	2326
1	1594	2327
1	1592	2328
1	1593	2329
1	1597	2330
1	1607	2331
1	1611	2332
1	1629	2333
1	1634	2334
1	1637	2335
1	1641	2336
1	1644	2337
1	1645	2338
1	1634	2339
1	1752	2360
1	1736	2361
1	1719	2362
1	1715	2363
1	1712	2364
1	1717	2365
1	1725	2366
1	1736	2367
1	1741	2368
1	1749	2369
1	1752	2370
1	1751	2371
1	1751	2372
1	1744	2373
1	1743	2374
1	1738	2375
1	1731	2376
1	1712	2377
1	1689	2378
1	1659	2379
1	1620	2380
1	1583	2381
1	1557	2382
1	1542	2383
1	1529	2384
1	1536	2385
1	1557	2386
1	1593	2387
1	1637	2388
1	1690	2389
1	1738	2390
1	1783	2391
1	1817	2392
1	1823	2393
1	1816	2394
1	1786	2395
1	1741	2396
1	1692	2397
1	1643	2398
1	1590	2399
1	1549	2400
1	1521	2401
1	1504	2402
1	1504	2403
1	1523	2404
1	1543	2405
1	1581	2406
1	1625	2407
1	1672	2408
1	1712	2409
1	1744	2410
1	1770	2411
1	1791	2412
1	1808	2413
1	1801	2414
1	1796	2415
1	1783	2416
1	1768	2417
1	1756	2418
1	1749	2419
1	1734	2420
1	1716	2421
1	1706	2422
1	1706	2423
1	1697	2424
1	1705	2425
1	1717	2426
1	1736	2427
1	1752	2428
1	1772	2429
1	1791	2430
1	1812	2431
1	1818	2432
1	1823	2433
1	1826	2434
1	1817	2435
1	1796	2436
1	1777	2437
1	1764	2438
1	1747	2439
1	1731	2440
1	1719	2441
1	1712	2442
1	1710	2443
1	1701	2444
1	1698	2445
1	1699	2446
1	1705	2447
1	1716	2448
1	1730	2449
1	1726	2450
1	1720	2451
1	1711	2452
1	1697	2453
1	1682	2454
1	1660	2455
1	1634	2456
1	1607	2457
1	1582	2458
1	1558	2459
1	1555	2460
1	1560	2461
1	1576	2462
1	1602	2463
1	1634	2464
1	1668	2465
1	1703	2466
1	1739	2467
1	1774	2468
1	1801	2469
1	1828	2470
1	1847	2471
1	1864	2472
1	1874	2473
1	1869	2474
1	1854	2475
1	1824	2476
1	1775	2477
1	1721	2478
1	1670	2479
1	1611	2480
1	1560	2481
1	1525	2482
1	1499	2483
1	1484	2484
1	1477	2485
1	1481	2486
1	1497	2487
1	1526	2488
1	1559	2489
1	1606	2490
1	1655	2491
1	1697	2492
1	1728	2493
1	1757	2494
1	1769	2495
1	1769	2496
1	1756	2497
1	1728	2498
1	1692	2499
1	1652	2500
1	1615	2501
1	1589	2502
1	1574	2503
1	1570	2504
1	1580	2505
1	1592	2506
1	1607	2507
1	1636	2508
1	1670	2509
1	1700	2510
1	1730	2511
1	1760	2512
1	1785	2513
1	1803	2514
1	1818	2515
1	1823	2516
1	1821	2517
1	1815	2518
1	1791	2519
1	1756	2520
1	1715	2521
1	1673	2522
1	1631	2523
1	1602	2524
1	1584	2525
1	1571	2526
1	1566	2527
1	1576	2528
1	1581	2529
1	1598	2530
1	1621	2531
1	1643	2532
1	1651	2533
1	1651	2534
1	1640	2535
1	1624	2536
1	1597	2537
1	1574	2538
1	1548	2539
1	1529	2540
1	1524	2541
1	1540	2542
1	1577	2543
1	1620	2544
1	1674	2545
1	1741	2546
1	1818	2547
1	1894	2548
1	1970	2549
1	2030	2550
1	2105	2551
1	2171	2552
1	2236	2553
1	2293	2554
1	2337	2555
1	2379	2556
1	2415	2557
1	2444	2558
1	2464	2559
1	2470	2560
1	2462	2561
1	2449	2562
1	2431	2563
1	2404	2564
1	2381	2565
1	2364	2566
1	2348	2567
1	2342	2568
1	2350	2569
1	2354	2570
1	2363	2571
1	2364	2572
1	2364	2573
1	2353	2574
1	2332	2575
1	2291	2576
1	2222	2577
1	2130	2578
1	2004	2579
1	1875	2580
1	1738	2581
1	1607	2582
1	1490	2583
1	1398	2584
1	1314	2585
1	1251	2586
1	1217	2587
1	1209	2588
1	1215	2589
1	1235	2590
1	1272	2591
1	1311	2592
1	1349	2593
1	1384	2594
1	1420	2595
1	1448	2596
1	1474	2597
1	1491	2598
1	1510	2599
1	1524	2600
1	1534	2601
1	1541	2602
1	1547	2603
1	1557	2604
1	1574	2605
1	1589	2606
1	1600	2607
1	1608	2608
1	1612	2609
1	1622	2610
1	1625	2611
1	1621	2612
1	1616	2613
1	1612	2614
1	1604	2615
1	1591	2616
1	1579	2617
1	1570	2618
1	1563	2619
1	1554	2620
1	1542	2621
1	1539	2622
1	1547	2623
1	1557	2624
1	1571	2625
1	1583	2626
1	1602	2627
1	1626	2628
1	1652	2629
1	1686	2630
1	1718	2631
1	1750	2632
1	1778	2633
1	1791	2634
1	1798	2635
1	1792	2636
1	1780	2637
1	1764	2638
1	1738	2639
1	1719	2640
1	1700	2641
1	1690	2642
1	1687	2643
1	1697	2644
1	1700	2645
1	1705	2646
1	1716	2647
1	1729	2648
1	1740	2649
1	1749	2650
1	1754	2651
1	1753	2652
1	1749	2653
1	1738	2654
1	1737	2655
1	1737	2656
1	1742	2657
1	1747	2658
1	1751	2659
1	1738	2660
1	1717	2661
1	1701	2662
1	1685	2663
1	1674	2664
1	1672	2665
1	1674	2666
1	1680	2667
1	1686	2668
1	1690	2669
1	1697	2670
1	1700	2671
1	1704	2672
1	1707	2673
1	1712	2674
1	1714	2675
1	1714	2676
1	1710	2677
1	1698	2678
1	1686	2679
1	1670	2680
1	1657	2681
1	1647	2682
1	1646	2683
1	1646	2684
1	1656	2685
1	1672	2686
1	1694	2687
1	1718	2688
1	1751	2689
1	1785	2690
1	1819	2691
1	1850	2692
1	1867	2693
1	1868	2694
1	1859	2695
1	1842	2696
1	1816	2697
1	1785	2698
1	1749	2699
1	1719	2700
1	1690	2701
1	1661	2702
1	1635	2703
1	1620	2704
1	1607	2705
1	1594	2706
1	1593	2707
1	1596	2708
1	1616	2709
1	1647	2710
1	1684	2711
1	1717	2712
1	1748	2713
1	1768	2714
1	1782	2715
1	1791	2716
1	1791	2717
1	1788	2718
1	1781	2719
1	1762	2720
1	1738	2721
1	1720	2722
1	1718	2723
1	1720	2724
1	1738	2725
1	1760	2726
1	1788	2727
1	1819	2728
1	1847	2729
1	1875	2730
1	1903	2731
1	1921	2732
1	1929	2733
1	1927	2734
1	1926	2735
1	1913	2736
1	1888	2737
1	1859	2738
1	1824	2739
1	1783	2740
1	1748	2741
1	1711	2742
1	1686	2743
1	1674	2744
1	1677	2745
1	1691	2746
1	1718	2747
1	1751	2748
1	1790	2749
1	1823	2750
1	1858	2751
1	1895	2752
1	1930	2753
1	1960	2754
1	1974	2755
1	1978	2756
1	1970	2757
1	1948	2758
1	1908	2759
1	1877	2760
1	1854	2761
1	1838	2762
1	1830	2763
1	1835	2764
1	1843	2765
1	1860	2766
1	1885	2767
1	1914	2768
1	1948	2769
1	1979	2770
1	2003	2771
1	2014	2772
1	2018	2773
1	2016	2774
1	2015	2775
1	2000	2776
1	1975	2777
1	1951	2778
1	1927	2779
1	1900	2780
1	1877	2781
1	1859	2782
1	1850	2783
1	1848	2784
1	1850	2785
1	1863	2786
1	1885	2787
1	1917	2788
1	1952	2789
1	1992	2790
1	2026	2791
1	2052	2792
1	2066	2793
1	2077	2794
1	2071	2795
1	2053	2796
1	2029	2797
1	2006	2798
1	1989	2799
1	1974	2800
1	1969	2801
1	1965	2802
1	1967	2803
1	1972	2804
1	1982	2805
1	1998	2806
1	2013	2807
1	2026	2808
1	2042	2809
1	2044	2810
1	2048	2811
1	2047	2812
1	2036	2813
1	2014	2814
1	1991	2815
1	1963	2816
1	1930	2817
1	1897	2818
1	1861	2819
1	1837	2820
1	1814	2821
1	1791	2822
1	1776	2823
1	1764	2824
1	1756	2825
1	1754	2826
1	1753	2827
1	1769	2828
1	1782	2829
1	1779	2830
1	1775	2831
1	1775	2832
1	1773	2833
1	1778	2834
1	1773	2835
1	1754	2836
1	1723	2837
1	1686	2838
1	1642	2839
1	1603	2840
1	1569	2841
1	1541	2842
1	1527	2843
1	1521	2844
1	1530	2845
1	1553	2846
1	1581	2847
1	1608	2848
1	1634	2849
1	1657	2850
1	1682	2851
1	1701	2852
1	1712	2853
1	1718	2854
1	1710	2855
1	1690	2856
1	1667	2857
1	1634	2858
1	1605	2859
1	1572	2860
1	1544	2861
1	1521	2862
1	1503	2863
1	1494	2864
1	1494	2865
1	1503	2866
1	1510	2867
1	1529	2868
1	1555	2869
1	1578	2870
1	1592	2871
1	1594	2872
1	1584	2873
1	1570	2874
1	1549	2875
1	1528	2876
1	1503	2877
1	1474	2878
1	1432	2879
1	1439	2900
1	1427	2901
1	1424	2902
1	1424	2903
1	1428	2904
1	1437	2905
1	1446	2906
1	1455	2907
1	1472	2908
1	1484	2909
1	1503	2910
1	1529	2911
1	1548	2912
1	1564	2913
1	1580	2914
1	1581	2915
1	1569	2916
1	1551	2917
1	1529	2918
1	1507	2919
1	1405	2880
1	1374	2881
1	1359	2882
1	1358	2883
1	1372	2884
1	1391	2885
1	1413	2886
1	1441	2887
1	1476	2888
1	1503	2889
1	1529	2890
1	1546	2891
1	1553	2892
1	1551	2893
1	1539	2894
1	1526	2895
1	1507	2896
1	1491	2897
1	1472	2898
1	1456	2899
1	1480	2920
1	1450	2921
1	1430	2922
1	1404	2923
1	1384	2924
1	1378	2925
1	1379	2926
1	1394	2927
1	1409	2928
1	1431	2929
1	1454	2930
1	1485	2931
1	1517	2932
1	1554	2933
1	1580	2934
1	1597	2935
1	1607	2936
1	1607	2937
1	1596	2938
1	1576	2939
1	1555	2940
1	1525	2941
1	1492	2942
1	1456	2943
1	1427	2944
1	1398	2945
1	1372	2946
1	1364	2947
1	1368	2948
1	1383	2949
1	1412	2950
1	1443	2951
1	1477	2952
1	1512	2953
1	1530	2954
1	1536	2955
1	1529	2956
1	1508	2957
1	1481	2958
1	1454	2959
1	1422	2960
1	1395	2961
1	1375	2962
1	1384	2963
1	1409	2964
1	1441	2965
1	1481	2966
1	1521	2967
1	1555	2968
1	1575	2969
1	1590	2970
1	1605	2971
1	1616	2972
1	1618	2973
1	1618	2974
1	1607	2975
1	1582	2976
1	1551	2977
1	1512	2978
1	1476	2979
1	1435	2980
1	1394	2981
1	1346	2982
1	1319	2983
1	1293	2984
1	1278	2985
1	1269	2986
1	1280	2987
1	1307	2988
1	1347	2989
1	1399	2990
1	1450	2991
1	1501	2992
1	1541	2993
1	1568	2994
1	1581	2995
1	1583	2996
1	1580	2997
1	1566	2998
1	1553	2999
1	1542	3000
1	1528	3001
1	1513	3002
1	1504	3003
1	1495	3004
1	1484	3005
1	1469	3006
1	1456	3007
1	1446	3008
1	1439	3009
1	1439	3010
1	1447	3011
1	1458	3012
1	1476	3013
1	1489	3014
1	1503	3015
1	1517	3016
1	1531	3017
1	1546	3018
1	1566	3019
1	1571	3020
1	1564	3021
1	1566	3022
1	1570	3023
1	1554	3024
1	1530	3025
1	1503	3026
1	1464	3027
1	1424	3028
1	1381	3029
1	1345	3030
1	1314	3031
1	1294	3032
1	1287	3033
1	1282	3034
1	1286	3035
1	1293	3036
1	1302	3037
1	1320	3038
1	1340	3039
1	1357	3040
1	1377	3041
1	1413	3042
1	1450	3043
1	1489	3044
1	1515	3045
1	1547	3046
1	1576	3047
1	1607	3048
1	1636	3049
1	1661	3050
1	1682	3051
1	1697	3052
1	1701	3053
1	1690	3054
1	1665	3055
1	1634	3056
1	1593	3057
1	1551	3058
1	1498	3059
1	1465	3060
1	1442	3061
1	1435	3062
1	1437	3063
1	1450	3064
1	1465	3065
1	1488	3066
1	1512	3067
1	1537	3068
1	1559	3069
1	1571	3070
1	1566	3071
1	1557	3072
1	1544	3073
1	1521	3074
1	1503	3075
1	1479	3076
1	1454	3077
1	1436	3078
1	1420	3079
1	1398	3080
1	1379	3081
1	1372	3082
1	1375	3083
1	1389	3084
1	1404	3085
1	1424	3086
1	1449	3087
1	1477	3088
1	1503	3089
1	1530	3090
1	1563	3091
1	1590	3092
1	1603	3093
1	1599	3094
1	1585	3095
1	1566	3096
1	1537	3097
1	1503	3098
1	1462	3099
1	1422	3100
1	1379	3101
1	1353	3102
1	1335	3103
1	1327	3104
1	1333	3105
1	1346	3106
1	1368	3107
1	1400	3108
1	1442	3109
1	1489	3110
1	1533	3111
1	1579	3112
1	1608	3113
1	1626	3114
1	1631	3115
1	1629	3116
1	1618	3117
1	1602	3118
1	1577	3119
1	1555	3120
1	1538	3121
1	1528	3122
1	1517	3123
1	1510	3124
1	1518	3125
1	1528	3126
1	1539	3127
1	1562	3128
1	1574	3129
1	1583	3130
1	1594	3131
1	1605	3132
1	1611	3133
1	1607	3134
1	1598	3135
1	1581	3136
1	1555	3137
1	1529	3138
1	1503	3139
1	1474	3140
1	1450	3141
1	1439	3142
1	1445	3143
1	1456	3144
1	1479	3145
1	1502	3146
1	1527	3147
1	1555	3148
1	1575	3149
1	1584	3150
1	1591	3151
1	1586	3152
1	1572	3153
1	1553	3154
1	1523	3155
1	1494	3156
1	1465	3157
1	1439	3158
1	1418	3159
1	1398	3160
1	1384	3161
1	1389	3162
1	1398	3163
1	1409	3164
1	1424	3165
1	1445	3166
1	1467	3167
1	1492	3168
1	1526	3169
1	1555	3170
1	1585	3171
1	1613	3172
1	1636	3173
1	1647	3174
1	1652	3175
1	1647	3176
1	1633	3177
1	1607	3178
1	1566	3179
1	1532	3180
1	1492	3181
1	1452	3182
1	1423	3183
1	1402	3184
1	1384	3185
1	1375	3186
1	1381	3187
1	1402	3188
1	1429	3189
1	1462	3190
1	1503	3191
1	1545	3192
1	1584	3193
1	1607	3194
1	1629	3195
1	1638	3196
1	1638	3197
1	1633	3198
1	1625	3199
1	1607	3200
1	1581	3201
1	1562	3202
1	1555	3203
1	1557	3204
1	1568	3205
1	1589	3206
1	1611	3207
1	1641	3208
1	1661	3209
1	1686	3210
1	1701	3211
1	1708	3212
1	1701	3213
1	1688	3214
1	1661	3215
1	1634	3216
1	1606	3217
1	1580	3218
1	1548	3219
1	1508	3220
1	1474	3221
1	1445	3222
1	1422	3223
1	1406	3224
1	1397	3225
1	1398	3226
1	1404	3227
1	1422	3228
1	1437	3229
1	1466	3230
1	1492	3231
1	1520	3232
1	1555	3233
1	1583	3234
1	1613	3235
1	1636	3236
1	1659	3237
1	1665	3238
1	1652	3239
1	1641	3240
1	1632	3241
1	1620	3242
1	1616	3243
1	1620	3244
1	1621	3245
1	1628	3246
1	1636	3247
1	1647	3248
1	1656	3249
1	1659	3250
1	1660	3251
1	1660	3252
1	1657	3253
1	1636	3254
1	1625	3255
1	1608	3256
1	1590	3257
1	1569	3258
1	1552	3259
1	1611	3280
1	1607	3281
1	1603	3282
1	1607	3283
1	1613	3284
1	1629	3285
1	1643	3286
1	1664	3287
1	1683	3288
1	1707	3289
1	1723	3290
1	1734	3291
1	1737	3292
1	1733	3293
1	1719	3294
1	1705	3295
1	1688	3296
1	1670	3297
1	1652	3298
1	1629	3299
1	1530	3260
1	1512	3261
1	1502	3262
1	1499	3263
1	1502	3264
1	1505	3265
1	1508	3266
1	1512	3267
1	1517	3268
1	1525	3269
1	1537	3270
1	1554	3271
1	1566	3272
1	1580	3273
1	1590	3274
1	1597	3275
1	1607	3276
1	1612	3277
1	1619	3278
1	1618	3279
1	1612	3300
1	1600	3301
1	1589	3302
1	1582	3303
1	1587	3304
1	1591	3305
1	1598	3306
1	1605	3307
1	1609	3308
1	1612	3309
1	1610	3310
1	1607	3311
1	1604	3312
1	1597	3313
1	1581	3314
1	1566	3315
1	1544	3316
1	1527	3317
1	1516	3318
1	1508	3319
1	1499	3320
1	1490	3321
1	1481	3322
1	1495	3323
1	1514	3324
1	1529	3325
1	1559	3326
1	1595	3327
1	1634	3328
1	1660	3329
1	1685	3330
1	1712	3331
1	1737	3332
1	1764	3333
1	1782	3334
1	1789	3335
1	1780	3336
1	1752	3337
1	1724	3338
1	1686	3339
1	1648	3340
1	1614	3341
1	1591	3342
1	1575	3343
1	1566	3344
1	1573	3345
1	1590	3346
1	1613	3347
1	1650	3348
1	1692	3349
1	1729	3350
1	1759	3351
1	1782	3352
1	1798	3353
1	1798	3354
1	1780	3355
1	1752	3356
1	1719	3357
1	1687	3358
1	1647	3359
1	1632	3360
1	1609	3361
1	1598	3362
1	1593	3363
1	1602	3364
1	1613	3365
1	1630	3366
1	1646	3367
1	1663	3368
1	1682	3369
1	1692	3370
1	1701	3371
1	1712	3372
1	1719	3373
1	1716	3374
1	1716	3375
1	1713	3376
1	1712	3377
1	1703	3378
1	1700	3379
1	1691	3380
1	1685	3381
1	1677	3382
1	1661	3383
1	1648	3384
1	1634	3385
1	1618	3386
1	1598	3387
1	1582	3388
1	1571	3389
1	1572	3390
1	1579	3391
1	1580	3392
1	1581	3393
1	1587	3394
1	1589	3395
1	1591	3396
1	1593	3397
1	1594	3398
1	1590	3399
1	1580	3400
1	1564	3401
1	1554	3402
1	1553	3403
1	1551	3404
1	1554	3405
1	1561	3406
1	1580	3407
1	1607	3408
1	1643	3409
1	1681	3410
1	1713	3411
1	1747	3412
1	1766	3413
1	1781	3414
1	1782	3415
1	1775	3416
1	1759	3417
1	1734	3418
1	1691	3419
1	1738	3440
1	1706	3441
1	1679	3442
1	1644	3443
1	1607	3444
1	1577	3445
1	1553	3446
1	1536	3447
1	1529	3448
1	1525	3449
1	1528	3450
1	1537	3451
1	1553	3452
1	1571	3453
1	1593	3454
1	1616	3455
1	1636	3456
1	1655	3457
1	1667	3458
1	1678	3459
1	1659	3420
1	1620	3421
1	1592	3422
1	1572	3423
1	1561	3424
1	1567	3425
1	1570	3426
1	1587	3427
1	1603	3428
1	1618	3429
1	1638	3430
1	1662	3431
1	1692	3432
1	1724	3433
1	1746	3434
1	1760	3435
1	1768	3436
1	1773	3437
1	1776	3438
1	1764	3439
1	1695	3460
1	1724	3461
1	1764	3462
1	1819	3463
1	1884	3464
1	1940	3465
1	2011	3466
1	2079	3467
1	2155	3468
1	2238	3469
1	2318	3470
1	2397	3471
1	2471	3472
1	2523	3473
1	2562	3474
1	2579	3475
1	2573	3476
1	2548	3477
1	2509	3478
1	2449	3479
1	2401	3480
1	2341	3481
1	2293	3482
1	2261	3483
1	2243	3484
1	2229	3485
1	2210	3486
1	2195	3487
1	2176	3488
1	2156	3489
1	2127	3490
1	2086	3491
1	2029	3492
1	1953	3493
1	1847	3494
1	1754	3495
1	1647	3496
1	1542	3497
1	1450	3498
1	1372	3499
1	1310	3500
1	1265	3501
1	1227	3502
1	1197	3503
1	1185	3504
1	1183	3505
1	1196	3506
1	1230	3507
1	1281	3508
1	1346	3509
1	1411	3510
1	1485	3511
1	1558	3512
1	1629	3513
1	1686	3514
1	1719	3515
1	1739	3516
1	1738	3517
1	1724	3518
1	1693	3519
1	1651	3520
1	1598	3521
1	1556	3522
1	1513	3523
1	1488	3524
1	1482	3525
1	1499	3526
1	1526	3527
1	1559	3528
1	1599	3529
1	1649	3530
1	1700	3531
1	1749	3532
1	1791	3533
1	1816	3534
1	1825	3535
1	1821	3536
1	1793	3537
1	1751	3538
1	1687	3539
1	1648	3540
1	1602	3541
1	1562	3542
1	1534	3543
1	1519	3544
1	1511	3545
1	1523	3546
1	1548	3547
1	1589	3548
1	1641	3549
1	1701	3550
1	1755	3551
1	1798	3552
1	1829	3553
1	1843	3554
1	1844	3555
1	1836	3556
1	1814	3557
1	1778	3558
1	1742	3559
1	1698	3560
1	1652	3561
1	1618	3562
1	1600	3563
1	1594	3564
1	1604	3565
1	1625	3566
1	1659	3567
1	1703	3568
1	1751	3569
1	1790	3570
1	1833	3571
1	1859	3572
1	1870	3573
1	1873	3574
1	1859	3575
1	1832	3576
1	1791	3577
1	1742	3578
1	1687	3579
1	1651	3580
1	1610	3581
1	1580	3582
1	1555	3583
1	1543	3584
1	1542	3585
1	1555	3586
1	1583	3587
1	1616	3588
1	1652	3589
1	1675	3590
1	1694	3591
1	1712	3592
1	1727	3593
1	1739	3594
1	1747	3595
1	1746	3596
1	1738	3597
1	1718	3598
1	1696	3599
1	1677	3600
1	1660	3601
1	1644	3602
1	1636	3603
1	1643	3604
1	1655	3605
1	1677	3606
1	1708	3607
1	1738	3608
1	1760	3609
1	1773	3610
1	1787	3611
1	1791	3612
1	1800	3613
1	1795	3614
1	1791	3615
1	1778	3616
1	1764	3617
1	1753	3618
1	1751	3619
1	1744	3620
1	1733	3621
1	1729	3622
1	1738	3623
1	1742	3624
1	1760	3625
1	1778	3626
1	1799	3627
1	1817	3628
1	1829	3629
1	1841	3630
1	1847	3631
1	1856	3632
1	1865	3633
1	1865	3634
1	1859	3635
1	1852	3636
1	1841	3637
1	1818	3638
1	1791	3639
1	1812	3660
1	1796	3661
1	1788	3662
1	1787	3663
1	1792	3664
1	1809	3665
1	1832	3666
1	1861	3667
1	1895	3668
1	1932	3669
1	1971	3670
1	2009	3671
1	2040	3672
1	2061	3673
1	2065	3674
1	2055	3675
1	2034	3676
1	2000	3677
1	1960	3678
1	1920	3679
1	1764	3640
1	1738	3641
1	1718	3642
1	1710	3643
1	1701	3644
1	1713	3645
1	1743	3646
1	1783	3647
1	1826	3648
1	1862	3649
1	1882	3650
1	1891	3651
1	1895	3652
1	1894	3653
1	1886	3654
1	1877	3655
1	1869	3656
1	1862	3657
1	1849	3658
1	1823	3659
1	1875	3680
1	1841	3681
1	1811	3682
1	1786	3683
1	1782	3684
1	1793	3685
1	1818	3686
1	1856	3687
1	1900	3688
1	1960	3689
1	2011	3690
1	2071	3691
1	2129	3692
1	2178	3693
1	2210	3694
1	2217	3695
1	2211	3696
1	2193	3697
1	2158	3698
1	2115	3699
1	2067	3700
1	2023	3701
1	1982	3702
1	1952	3703
1	1922	3704
1	1913	3705
1	1911	3706
1	1922	3707
1	1944	3708
1	1971	3709
1	2000	3710
1	2029	3711
1	2064	3712
1	2097	3713
1	2124	3714
1	2144	3715
1	2152	3716
1	2146	3717
1	2131	3718
1	2084	3719
1	2039	3720
1	1973	3721
1	1901	3722
1	1843	3723
1	1791	3724
1	1776	3725
1	1769	3726
1	1789	3727
1	1817	3728
1	1854	3729
1	1893	3730
1	1937	3731
1	1982	3732
1	2021	3733
1	2042	3734
1	2052	3735
1	2049	3736
1	2028	3737
1	2001	3738
1	1963	3739
1	1923	3740
1	1886	3741
1	1854	3742
1	1824	3743
1	1803	3744
1	1802	3745
1	1811	3746
1	1821	3747
1	1837	3748
1	1854	3749
1	1862	3750
1	1870	3751
1	1874	3752
1	1869	3753
1	1864	3754
1	1847	3755
1	1826	3756
1	1791	3757
1	1759	3758
1	1721	3759
1	1684	3760
1	1648	3761
1	1612	3762
1	1581	3763
1	1550	3764
1	1538	3765
1	1538	3766
1	1540	3767
1	1550	3768
1	1563	3769
1	1570	3770
1	1580	3771
1	1594	3772
1	1611	3773
1	1631	3774
1	1646	3775
1	1660	3776
1	1665	3777
1	1660	3778
1	1634	3779
1	1607	3780
1	1569	3781
1	1534	3782
1	1503	3783
1	1476	3784
1	1466	3785
1	1458	3786
1	1464	3787
1	1478	3788
1	1499	3789
1	1525	3790
1	1549	3791
1	1573	3792
1	1585	3793
1	1581	3794
1	1568	3795
1	1550	3796
1	1521	3797
1	1502	3798
1	1485	3799
1	1472	3800
1	1463	3801
1	1458	3802
1	1459	3803
1	1469	3804
1	1479	3805
1	1490	3806
1	1501	3807
1	1519	3808
1	1539	3809
1	1555	3810
1	1574	3811
1	1586	3812
1	1600	3813
1	1618	3814
1	1632	3815
1	1643	3816
1	1651	3817
1	1649	3818
1	1638	3819
1	1611	3820
1	1577	3821
1	1549	3822
1	1528	3823
1	1515	3824
1	1508	3825
1	1507	3826
1	1512	3827
1	1526	3828
1	1535	3829
1	1545	3830
1	1560	3831
1	1576	3832
1	1594	3833
1	1594	3834
1	1587	3835
1	1582	3836
1	1577	3837
1	1567	3838
1	1544	3839
1	1535	3840
1	1520	3841
1	1508	3842
1	1507	3843
1	1514	3844
1	1510	3845
1	1516	3846
1	1521	3847
1	1524	3848
1	1519	3849
1	1515	3850
1	1513	3851
1	1512	3852
1	1513	3853
1	1507	3854
1	1510	3855
1	1515	3856
1	1518	3857
1	1520	3858
1	1517	3859
1	1507	3880
1	1490	3881
1	1484	3882
1	1469	3883
1	1463	3884
1	1463	3885
1	1467	3886
1	1479	3887
1	1502	3888
1	1526	3889
1	1544	3890
1	1567	3891
1	1590	3892
1	1609	3893
1	1623	3894
1	1632	3895
1	1633	3896
1	1629	3897
1	1616	3898
1	1586	3899
1	1503	3860
1	1485	3861
1	1476	3862
1	1472	3863
1	1476	3864
1	1487	3865
1	1503	3866
1	1521	3867
1	1537	3868
1	1544	3869
1	1555	3870
1	1570	3871
1	1580	3872
1	1581	3873
1	1577	3874
1	1568	3875
1	1559	3876
1	1549	3877
1	1536	3878
1	1523	3879
1	1566	3900
1	1538	3901
1	1520	3902
1	1513	3903
1	1511	3904
1	1516	3905
1	1529	3906
1	1553	3907
1	1581	3908
1	1607	3909
1	1636	3910
1	1660	3911
1	1685	3912
1	1694	3913
1	1683	3914
1	1665	3915
1	1636	3916
1	1602	3917
1	1562	3918
1	1529	3919
1	1503	3920
1	1485	3921
1	1477	3922
1	1489	3923
1	1494	3924
1	1508	3925
1	1530	3926
1	1555	3927
1	1581	3928
1	1607	3929
1	1629	3930
1	1642	3931
1	1649	3932
1	1655	3933
1	1647	3934
1	1634	3935
1	1617	3936
1	1593	3937
1	1572	3938
1	1541	3939
1	1513	3940
1	1484	3941
1	1459	3942
1	1439	3943
1	1419	3944
1	1413	3945
1	1415	3946
1	1424	3947
1	1441	3948
1	1463	3949
1	1480	3950
1	1494	3951
1	1503	3952
1	1503	3953
1	1499	3954
1	1489	3955
1	1476	3956
1	1461	3957
1	1443	3958
1	1426	3959
1	1424	3960
1	1430	3961
1	1450	3962
1	1480	3963
1	1518	3964
1	1546	3965
1	1573	3966
1	1603	3967
1	1631	3968
1	1652	3969
1	1673	3970
1	1696	3971
1	1714	3972
1	1725	3973
1	1716	3974
1	1705	3975
1	1684	3976
1	1655	3977
1	1621	3978
1	1579	3979
1	1541	3980
1	1492	3981
1	1452	3982
1	1417	3983
1	1395	3984
1	1377	3985
1	1376	3986
1	1383	3987
1	1395	3988
1	1411	3989
1	1436	3990
1	1477	3991
1	1528	3992
1	1575	3993
1	1613	3994
1	1646	3995
1	1670	3996
1	1682	3997
1	1675	3998
1	1653	3999
1	1618	4000
1	1576	4001
1	1529	4002
1	1485	4003
1	1438	4004
1	1414	4005
1	1403	4006
1	1413	4006
1	1446	4008
1	1477	4009
1	1521	4010
1	1555	4011
1	1592	4012
1	1608	4013
1	1611	4014
1	1608	4014
1	1605	4016
1	1594	4017
1	1582	4018
1	1557	4019
1	1544	4020
1	1533	4021
1	1528	4022
1	1521	4022
1	1514	4024
1	1517	4025
1	1512	4026
1	1507	4027
1	1507	4028
1	1506	4029
1	1505	4030
1	1513	4030
1	1523	4032
1	1530	4033
1	1539	4034
1	1546	4035
1	1555	4036
1	1560	4037
1	1557	4038
1	1541	4038
1	1513	4040
1	1485	4041
1	1463	4042
1	1443	4043
1	1437	4044
1	1442	4045
1	1460	4046
1	1482	4046
1	1511	4048
1	1543	4049
1	1569	4050
1	1595	4051
1	1620	4052
1	1634	4053
1	1639	4054
1	1646	4054
1	1634	4056
1	1622	4057
1	1608	4058
1	1596	4059
1	1581	4060
1	1561	4061
1	1544	4062
1	1529	4062
1	1510	4064
1	1502	4065
1	1499	4066
1	1502	4067
1	1516	4068
1	1533	4069
1	1561	4070
1	1584	4070
1	1597	4072
1	1598	4073
1	1585	4074
1	1569	4075
1	1554	4076
1	1530	4077
1	1502	4078
1	1456	4078
1	1499	4100
1	1460	4101
1	1436	4102
1	1424	4103
1	1426	4104
1	1441	4105
1	1454	4106
1	1476	4107
1	1501	4108
1	1529	4109
1	1555	4110
1	1592	4111
1	1631	4112
1	1662	4113
1	1686	4114
1	1705	4115
1	1708	4116
1	1692	4117
1	1662	4118
1	1631	4119
1	1429	4080
1	1398	4081
1	1372	4082
1	1371	4083
1	1379	4084
1	1408	4085
1	1438	4086
1	1481	4086
1	1529	4088
1	1584	4089
1	1637	4090
1	1681	4091
1	1711	4092
1	1728	4093
1	1724	4094
1	1712	4094
1	1686	4096
1	1645	4097
1	1595	4098
1	1542	4099
1	1593	4120
1	1558	4121
1	1523	4122
1	1503	4123
1	1500	4124
1	1512	4125
1	1529	4126
1	1554	4127
1	1582	4128
1	1607	4129
1	1629	4130
1	1647	4131
1	1661	4132
1	1675	4133
1	1673	4134
1	1663	4135
1	1647	4136
1	1624	4137
1	1594	4138
1	1563	4139
1	1524	4140
1	1490	4141
1	1468	4142
1	1463	4143
1	1462	4144
1	1478	4145
1	1494	4146
1	1508	4147
1	1523	4148
1	1537	4149
1	1547	4150
1	1557	4151
1	1571	4152
1	1582	4153
1	1596	4154
1	1605	4155
1	1612	4156
1	1621	4157
1	1628	4158
1	1625	4159
1	1621	4160
1	1605	4161
1	1584	4162
1	1566	4163
1	1553	4164
1	1541	4165
1	1535	4166
1	1535	4167
1	1537	4168
1	1547	4169
1	1555	4170
1	1566	4171
1	1572	4172
1	1581	4173
1	1587	4174
1	1607	4175
1	1616	4176
1	1618	4177
1	1612	4178
1	1608	4179
1	1600	4180
1	1593	4181
1	1589	4182
1	1581	4183
1	1581	4184
1	1584	4185
1	1594	4186
1	1607	4187
1	1624	4188
1	1637	4189
1	1660	4190
1	1682	4191
1	1690	4192
1	1687	4193
1	1681	4194
1	1671	4195
1	1660	4196
1	1647	4197
1	1632	4198
1	1611	4199
1	1582	4200
1	1564	4201
1	1552	4202
1	1541	4203
1	1534	4204
1	1540	4205
1	1543	4206
1	1553	4207
1	1557	4208
1	1566	4209
1	1571	4210
1	1577	4211
1	1583	4212
1	1593	4213
1	1603	4214
1	1605	4215
1	1607	4216
1	1605	4217
1	1602	4218
1	1593	4219
1	1585	4220
1	1568	4221
1	1563	4222
1	1546	4223
1	1537	4224
1	1521	4225
1	1520	4226
1	1535	4227
1	1562	4228
1	1595	4229
1	1634	4230
1	1679	4231
1	1724	4232
1	1764	4233
1	1787	4234
1	1791	4235
1	1776	4236
1	1749	4237
1	1716	4238
1	1672	4239
1	1662	4260
1	1649	4261
1	1634	4262
1	1623	4263
1	1607	4264
1	1607	4265
1	1607	4266
1	1613	4267
1	1632	4268
1	1647	4269
1	1664	4270
1	1676	4271
1	1687	4272
1	1700	4273
1	1705	4274
1	1702	4275
1	1697	4276
1	1684	4277
1	1669	4278
1	1661	4279
1	1625	4240
1	1581	4241
1	1538	4242
1	1499	4243
1	1468	4244
1	1445	4245
1	1443	4246
1	1458	4247
1	1490	4248
1	1527	4249
1	1575	4250
1	1620	4251
1	1661	4252
1	1699	4253
1	1724	4254
1	1734	4255
1	1733	4256
1	1716	4257
1	1700	4258
1	1685	4259
1	1661	4280
1	1657	4281
1	1660	4282
1	1662	4283
1	1670	4284
1	1672	4285
1	1673	4286
1	1675	4287
1	1675	4288
1	1677	4289
1	1667	4290
1	1662	4291
1	1665	4292
1	1675	4293
1	1680	4294
1	1685	4295
1	1684	4296
1	1677	4297
1	1664	4298
1	1644	4299
1	1616	4300
1	1585	4301
1	1566	4302
1	1557	4303
1	1572	4304
1	1592	4305
1	1622	4306
1	1654	4307
1	1688	4308
1	1721	4309
1	1755	4310
1	1773	4311
1	1785	4312
1	1783	4313
1	1778	4314
1	1764	4315
1	1744	4316
1	1720	4317
1	1697	4318
1	1669	4319
1	1634	4320
1	1607	4321
1	1587	4322
1	1574	4323
1	1562	4324
1	1563	4325
1	1564	4326
1	1566	4327
1	1583	4328
1	1600	4329
1	1621	4330
1	1641	4331
1	1661	4332
1	1684	4333
1	1698	4334
1	1703	4335
1	1712	4336
1	1719	4337
1	1721	4338
1	1715	4339
1	1711	4340
1	1710	4341
1	1714	4342
1	1719	4343
1	1719	4344
1	1724	4345
1	1728	4346
1	1721	4347
1	1707	4348
1	1690	4349
1	1660	4350
1	1647	4351
1	1644	4352
1	1649	4353
1	1654	4354
1	1662	4355
1	1663	4356
1	1660	4357
1	1654	4358
1	1642	4359
1	1624	4360
1	1602	4361
1	1575	4362
1	1555	4363
1	1541	4364
1	1530	4365
1	1539	4366
1	1555	4367
1	1579	4368
1	1599	4369
1	1634	4370
1	1660	4371
1	1686	4372
1	1714	4373
1	1738	4374
1	1747	4375
1	1743	4376
1	1737	4377
1	1721	4378
1	1711	4379
1	1687	4380
1	1669	4381
1	1656	4382
1	1646	4383
1	1634	4384
1	1631	4385
1	1620	4386
1	1610	4387
1	1607	4388
1	1603	4389
1	1602	4390
1	1603	4391
1	1610	4392
1	1623	4393
1	1639	4394
1	1655	4395
1	1672	4396
1	1683	4397
1	1688	4398
1	1683	4399
1	1682	4400
1	1665	4401
1	1647	4402
1	1628	4403
1	1611	4404
1	1608	4405
1	1614	4406
1	1632	4407
1	1647	4408
1	1665	4409
1	1679	4410
1	1693	4411
1	1705	4412
1	1713	4413
1	1709	4414
1	1701	4415
1	1690	4416
1	1676	4417
1	1660	4418
1	1652	4419
1	2433	4440
1	2386	4441
1	2343	4442
1	2303	4443
1	2257	4444
1	2207	4445
1	2155	4446
1	2105	4447
1	2055	4448
1	2012	4449
1	1963	4450
1	1913	4451
1	1859	4452
1	1793	4453
1	1723	4454
1	1638	4455
1	1556	4456
1	1476	4457
1	1403	4458
1	1328	4459
1	1649	4420
1	1657	4421
1	1672	4422
1	1710	4423
1	1762	4424
1	1838	4425
1	1913	4426
1	1987	4427
1	2066	4428
1	2142	4429
1	2222	4430
1	2311	4431
1	2380	4432
1	2453	4433
1	2496	4434
1	2515	4435
1	2523	4436
1	2519	4437
1	2506	4438
1	2484	4439
1	1277	4460
1	1238	4461
1	1207	4462
1	1192	4463
1	1197	4464
1	1215	4465
1	1241	4466
1	1267	4467
1	1293	4468
1	1323	4469
1	1345	4470
1	1366	4471
1	1391	4472
1	1413	4473
1	1425	4474
1	1445	4475
1	1461	4476
1	1481	4477
1	1502	4478
1	1523	4479
1	1544	4480
1	1572	4481
1	1598	4482
1	1621	4483
1	1646	4484
1	1664	4485
1	1686	4486
1	1711	4487
1	1730	4488
1	1749	4489
1	1769	4490
1	1782	4491
1	1788	4492
1	1780	4493
1	1764	4494
1	1743	4495
1	1723	4496
1	1697	4497
1	1673	4498
1	1647	4499
1	1612	4500
1	1592	4501
1	1577	4502
1	1574	4503
1	1580	4504
1	1599	4505
1	1618	4506
1	1649	4507
1	1689	4508
1	1736	4509
1	1778	4510
1	1817	4511
1	1842	4512
1	1855	4513
1	1857	4514
1	1845	4515
1	1832	4516
1	1803	4517
1	1780	4518
1	1748	4519
1	1718	4520
1	1679	4521
1	1660	4522
1	1624	4523
1	1607	4524
1	1587	4525
1	1581	4526
1	1587	4527
1	1607	4528
1	1634	4529
1	1672	4530
1	1708	4531
1	1737	4532
1	1764	4533
1	1782	4534
1	1801	4535
1	1818	4536
1	1821	4537
1	1818	4538
1	1800	4539
1	1778	4540
1	1751	4541
1	1730	4542
1	1710	4543
1	1699	4544
1	1695	4545
1	1701	4546
1	1715	4547
1	1738	4548
1	1763	4549
1	1800	4550
1	1838	4551
1	1866	4552
1	1888	4553
1	1900	4554
1	1898	4555
1	1883	4556
1	1855	4557
1	1814	4558
1	1755	4559
1	1701	4560
1	1662	4561
1	1635	4562
1	1620	4563
1	1611	4564
1	1629	4565
1	1646	4566
1	1674	4567
1	1710	4568
1	1742	4569
1	1773	4570
1	1795	4571
1	1814	4572
1	1816	4573
1	1814	4574
1	1795	4575
1	1788	4576
1	1773	4577
1	1755	4578
1	1738	4579
1	1733	4580
1	1718	4581
1	1712	4582
1	1712	4583
1	1717	4584
1	1724	4585
1	1737	4586
1	1751	4587
1	1769	4588
1	1800	4589
1	1828	4590
1	1865	4591
1	1904	4592
1	1944	4593
1	1965	4594
1	1984	4595
1	1993	4596
1	1989	4597
1	1978	4598
1	1959	4599
1	1933	4600
1	1903	4601
1	1874	4602
1	1860	4603
1	1856	4604
1	1859	4605
1	1883	4606
1	1913	4607
1	1950	4608
1	1988	4609
1	2034	4610
1	2070	4611
1	2101	4612
1	2118	4613
1	2129	4614
1	2123	4615
1	2100	4616
1	2058	4617
1	2009	4618
1	1950	4619
1	1871	4640
1	1874	4641
1	1883	4642
1	1890	4643
1	1899	4644
1	1917	4645
1	1936	4646
1	1962	4647
1	1996	4648
1	2027	4649
1	2049	4650
1	2068	4651
1	2087	4652
1	2106	4653
1	2109	4654
1	2119	4655
1	2119	4656
1	2115	4657
1	2108	4658
1	2100	4659
1	1895	4620
1	1847	4621
1	1816	4622
1	1791	4623
1	1786	4624
1	1796	4625
1	1816	4626
1	1830	4627
1	1857	4628
1	1878	4629
1	1895	4630
1	1913	4631
1	1926	4632
1	1936	4633
1	1940	4634
1	1930	4635
1	1917	4636
1	1899	4637
1	1890	4638
1	1877	4639
1	2088	4660
1	2075	4661
1	2066	4662
1	2063	4663
1	2067	4664
1	2075	4665
1	2089	4666
1	2107	4667
1	2131	4668
1	2153	4669
1	2178	4670
1	2196	4671
1	2210	4672
1	2217	4673
1	2214	4674
1	2209	4675
1	2201	4676
1	2186	4677
1	2176	4678
1	2168	4679
1	2147	4680
1	2131	4681
1	2119	4682
1	2118	4683
1	2115	4684
1	2117	4685
1	2105	4686
1	2093	4687
1	2084	4688
1	2090	4689
1	2101	4690
1	2114	4691
1	2130	4692
1	2132	4693
1	2127	4694
1	2097	4695
1	2066	4696
1	2025	4697
1	1978	4698
1	1927	4699
1	1894	4700
1	1854	4701
1	1818	4702
1	1791	4703
1	1778	4704
1	1775	4705
1	1776	4706
1	1788	4707
1	1799	4708
1	1817	4709
1	1819	4710
1	1823	4711
1	1818	4712
1	1814	4713
1	1791	4714
1	1778	4715
1	1754	4716
1	1730	4717
1	1711	4718
1	1694	4719
1	1625	4740
1	1607	4741
1	1596	4742
1	1602	4743
1	1604	4744
1	1613	4745
1	1619	4746
1	1627	4747
1	1639	4748
1	1652	4749
1	1661	4750
1	1669	4751
1	1674	4752
1	1674	4753
1	1665	4754
1	1646	4755
1	1623	4756
1	1602	4757
1	1589	4758
1	1562	4759
1	1679	4720
1	1662	4721
1	1660	4722
1	1657	4723
1	1647	4724
1	1642	4725
1	1639	4726
1	1644	4727
1	1655	4728
1	1661	4729
1	1675	4730
1	1699	4731
1	1723	4732
1	1747	4733
1	1754	4734
1	1747	4735
1	1728	4736
1	1701	4737
1	1680	4738
1	1656	4739
1	1546	4760
1	1525	4761
1	1503	4762
1	1481	4763
1	1455	4764
1	1438	4765
1	1425	4766
1	1420	4767
1	1409	4768
1	1400	4769
1	1393	4770
1	1401	4771
1	1424	4772
1	1454	4773
1	1479	4774
1	1503	4775
1	1519	4776
1	1528	4777
1	1532	4778
1	1540	4779
1	1538	4780
1	1538	4781
1	1546	4782
1	1557	4783
1	1577	4784
1	1594	4785
1	1610	4786
1	1626	4787
1	1643	4788
1	1649	4789
1	1664	4790
1	1671	4791
1	1677	4792
1	1677	4793
1	1665	4794
1	1646	4795
1	1620	4796
1	1586	4797
1	1551	4798
1	1508	4799
1	1463	4800
1	1427	4801
1	1400	4802
1	1395	4803
1	1383	4804
1	1396	4805
1	1409	4806
1	1431	4807
1	1450	4808
1	1467	4809
1	1476	4810
1	1482	4811
1	1485	4812
1	1481	4813
1	1472	4814
1	1445	4815
1	1415	4816
1	1376	4817
1	1346	4818
1	1310	4819
1	1279	4820
1	1241	4821
1	1225	4822
1	1190	4823
1	1174	4824
1	1155	4825
1	1148	4826
1	1158	4827
1	1183	4828
1	1225	4829
1	1274	4830
1	1319	4831
1	1357	4832
1	1391	4833
1	1400	4834
1	1409	4835
1	1415	4836
1	1413	4837
1	1391	4838
1	1363	4839
1	1332	4840
1	1293	4841
1	1264	4842
1	1244	4843
1	1241	4844
1	1243	4845
1	1265	4846
1	1292	4847
1	1328	4848
1	1356	4849
1	1394	4850
1	1417	4851
1	1445	4852
1	1468	4853
1	1484	4854
1	1488	4855
1	1476	4856
1	1453	4857
1	1422	4858
1	1377	4859
1	1336	4860
1	1299	4861
1	1269	4862
1	1250	4863
1	1230	4864
1	1233	4865
1	1240	4866
1	1251	4867
1	1269	4868
1	1291	4869
1	1310	4870
1	1322	4871
1	1334	4872
1	1341	4873
1	1343	4874
1	1330	4875
1	1310	4876
1	1284	4877
1	1259	4878
1	1225	4879
1	1202	4880
1	1175	4881
1	1152	4882
1	1128	4883
1	1111	4884
1	1107	4885
1	1110	4886
1	1121	4887
1	1135	4888
1	1160	4889
1	1183	4890
1	1215	4891
1	1250	4892
1	1276	4893
1	1283	4894
1	1285	4895
1	1271	4896
1	1251	4897
1	1225	4898
1	1188	4899
1	1147	4900
1	1104	4901
1	1062	4902
1	1037	4903
1	1031	4904
1	1031	4905
1	1044	4906
1	1058	4907
1	1080	4908
1	1085	4909
1	1098	4910
1	1104	4911
1	1112	4912
1	1124	4913
1	1134	4914
1	1142	4915
1	1160	4916
1	1167	4917
1	1184	4918
1	1193	4919
1	1197	4920
1	1193	4921
1	1189	4922
1	1184	4923
1	1171	4924
1	1167	4925
1	1148	4926
1	1143	4927
1	1141	4928
1	1147	4929
1	1152	4930
1	1165	4931
1	1182	4932
1	1194	4933
1	1197	4934
1	1189	4935
1	1179	4936
1	1164	4937
1	1141	4938
1	1119	4939
1	1099	4940
1	1086	4941
1	1082	4942
1	1073	4943
1	1071	4944
1	1076	4945
1	1087	4946
1	1103	4947
1	1112	4948
1	1123	4949
1	1128	4950
1	1141	4951
1	1151	4952
1	1161	4953
1	1157	4954
1	1161	4955
1	1162	4956
1	1161	4957
1	1154	4958
1	1142	4959
1	1127	4960
1	1110	4961
1	1088	4962
1	1074	4963
1	1062	4964
1	1040	4965
1	1029	4966
1	1021	4967
1	1013	4968
1	1003	4969
1	1005	4970
1	1011	4971
1	1031	4972
1	1049	4973
1	1058	4974
1	1057	4975
1	1040	4976
1	1018	4977
1	985	4978
1	953	4979
1	924	4980
1	908	4981
1	903	4982
1	914	4983
1	928	4984
1	953	4985
1	981	4986
1	1022	4987
1	1063	4988
1	1105	4989
1	1139	4990
1	1168	4991
1	1191	4992
1	1211	4993
1	1225	4994
1	1220	4995
1	1212	4996
1	1192	4997
1	1174	4998
1	1141	4999
1	1116	5000
1	1088	5001
1	1063	5002
1	1042	5003
1	1030	5004
1	1026	5005
1	1031	5006
1	1040	5007
1	1059	5008
1	1084	5009
1	1103	5010
1	1124	5011
1	1141	5012
1	1161	5013
1	1168	5014
1	1179	5015
1	1176	5016
1	1166	5017
1	1151	5018
1	1125	5019
1	1096	5020
1	1061	5021
1	1043	5022
1	1013	5023
1	984	5024
1	958	5025
1	953	5026
1	955	5027
1	977	5028
1	993	5029
1	1017	5030
1	1052	5031
1	1089	5032
1	1138	5033
1	1175	5034
1	1206	5035
1	1223	5036
1	1224	5037
1	1215	5038
1	1193	5039
1	1162	5040
1	1124	5041
1	1084	5042
1	1045	5043
1	1011	5044
1	998	5045
1	993	5046
1	999	5047
1	1011	5048
1	1024	5049
1	1040	5050
1	1059	5051
1	1078	5052
1	1091	5053
1	1094	5054
1	1085	5055
1	1075	5056
1	1056	5057
1	1034	5058
1	1011	5059
1	995	5060
1	978	5061
1	960	5062
1	953	5063
1	957	5064
1	974	5065
1	991	5066
1	1016	5067
1	1033	5068
1	1049	5069
1	1067	5070
1	1097	5071
1	1134	5072
1	1173	5073
1	1202	5074
1	1215	5075
1	1215	5076
1	1196	5077
1	1175	5078
1	1155	5079
1	1125	5080
1	1106	5081
1	1098	5082
1	1107	5083
1	1127	5084
1	1164	5085
1	1207	5086
1	1256	5087
1	1305	5088
1	1351	5089
1	1399	5090
1	1423	5091
1	1430	5092
1	1425	5093
1	1401	5094
1	1368	5095
1	1337	5096
1	1305	5097
1	1266	5098
1	1218	5099
1	1162	5100
1	1110	5101
1	1065	5102
1	1019	5103
1	979	5104
1	953	5105
1	937	5106
1	939	5107
1	954	5108
1	982	5109
1	1016	5110
1	1050	5111
1	1084	5112
1	1107	5113
1	1123	5114
1	1134	5115
1	1139	5116
1	1144	5117
1	1148	5118
1	1143	5119
1	1134	5120
1	1113	5121
1	1106	5122
1	1106	5123
1	1110	5124
1	1121	5125
1	1134	5126
1	1138	5127
1	1138	5128
1	1134	5129
1	1132	5130
1	1134	5131
1	1137	5132
1	1143	5133
1	1140	5134
1	1129	5135
1	1111	5136
1	1083	5137
1	1050	5138
1	1017	5139
1	988	5140
1	963	5141
1	957	5142
1	960	5143
1	974	5144
1	975	5145
1	978	5146
1	985	5147
1	1005	5148
1	1029	5149
1	1056	5150
1	1085	5151
1	1122	5152
1	1150	5153
1	1170	5154
1	1179	5155
1	1181	5156
1	1179	5157
1	1170	5158
1	1158	5159
1	1139	5160
1	1126	5161
1	1109	5162
1	1089	5163
1	1083	5164
1	1081	5165
1	1092	5166
1	1110	5167
1	1134	5168
1	1162	5169
1	1194	5170
1	1228	5171
1	1259	5172
1	1287	5173
1	1308	5174
1	1315	5175
1	1303	5176
1	1274	5177
1	1227	5178
1	1170	5179
1	1110	5180
1	1045	5181
1	986	5182
1	934	5183
1	900	5184
1	887	5185
1	886	5186
1	898	5187
1	923	5188
1	955	5189
1	982	5190
1	999	5191
1	1007	5192
1	1006	5193
1	1001	5194
1	991	5195
1	977	5196
1	965	5197
1	955	5198
1	945	5199
1	930	5200
1	916	5201
1	900	5202
1	887	5203
1	874	5204
1	866	5205
1	866	5206
1	874	5207
1	893	5208
1	925	5209
1	974	5210
1	1018	5211
1	1058	5212
1	1101	5213
1	1141	5214
1	1183	5215
1	1216	5216
1	1240	5217
1	1247	5218
1	1239	5219
1	1215	5220
1	1190	5221
1	1170	5222
1	1153	5223
1	1136	5224
1	1114	5225
1	1083	5226
1	1070	5227
1	1055	5228
1	1040	5229
1	1031	5230
1	1024	5231
1	1022	5232
1	1022	5233
1	1024	5234
1	1023	5235
1	1022	5236
1	1017	5237
1	1005	5238
1	992	5239
1	979	5240
1	975	5241
1	981	5242
1	1004	5243
1	1035	5244
1	1076	5245
1	1121	5246
1	1162	5247
1	1202	5248
1	1241	5249
1	1273	5250
1	1297	5251
1	1310	5252
1	1318	5253
1	1315	5254
1	1308	5255
1	1289	5256
1	1255	5257
1	1212	5258
1	1162	5259
1	1122	5260
1	1089	5261
1	1070	5262
1	1060	5263
1	1058	5264
1	1053	5265
1	1048	5266
1	1050	5267
1	1067	5268
1	1091	5269
1	1116	5270
1	1145	5271
1	1176	5272
1	1206	5273
1	1236	5274
1	1261	5275
1	1280	5276
1	1296	5277
1	1305	5278
1	1307	5279
1	1301	5280
1	1293	5281
1	1285	5282
1	1279	5283
1	1273	5284
1	1278	5285
1	1286	5286
1	1307	5287
1	1346	5288
1	1400	5289
1	1472	5290
1	1553	5291
1	1643	5292
1	1740	5293
1	1846	5294
1	1935	5295
1	2013	5296
1	2077	5297
1	2118	5298
1	2143	5299
1	2157	5300
1	2155	5301
1	2131	5302
1	2106	5303
1	2079	5304
1	2054	5305
1	2026	5306
1	1998	5307
1	1966	5308
1	1932	5309
1	1886	5310
1	1837	5311
1	1778	5312
1	1723	5313
1	1665	5314
1	1597	5315
1	1529	5316
1	1458	5317
1	1384	5318
1	1309	5319
1	1225	5320
1	1132	5321
1	1071	5322
1	1013	5323
1	978	5324
1	963	5325
1	975	5326
1	999	5327
1	1039	5328
1	1088	5329
1	1140	5330
1	1199	5331
1	1255	5332
1	1319	5333
1	1368	5334
1	1412	5335
1	1442	5336
1	1459	5337
1	1467	5338
1	1463	5339
1	1445	5340
1	1423	5341
1	1398	5342
1	1372	5343
1	1357	5344
1	1360	5345
1	1371	5346
1	1383	5347
1	1408	5348
1	1443	5349
1	1490	5350
1	1536	5351
1	1585	5352
1	1638	5353
1	1686	5354
1	1715	5355
1	1738	5356
1	1746	5357
1	1744	5358
1	1738	5359
1	1724	5360
1	1703	5361
1	1688	5362
1	1676	5363
1	1660	5364
1	1657	5365
1	1662	5366
1	1683	5367
1	1701	5368
1	1724	5369
1	1738	5370
1	1760	5371
1	1784	5372
1	1812	5373
1	1832	5374
1	1843	5375
1	1841	5376
1	1832	5377
1	1809	5378
1	1787	5379
1	2000	5400
1	1986	5401
1	1972	5402
1	1950	5403
1	1929	5404
1	1916	5405
1	1897	5406
1	1890	5407
1	1884	5408
1	1882	5409
1	1888	5410
1	1901	5411
1	1916	5412
1	1923	5413
1	1930	5414
1	1926	5415
1	1931	5416
1	1930	5417
1	1922	5418
1	1903	5419
1	1752	5380
1	1725	5381
1	1701	5382
1	1681	5383
1	1664	5384
1	1660	5385
1	1665	5386
1	1691	5387
1	1736	5388
1	1782	5389
1	1841	5390
1	1885	5391
1	1927	5392
1	1967	5393
1	1993	5394
1	2011	5395
1	2024	5396
1	2026	5397
1	2025	5398
1	2016	5399
1	1870	5420
1	1839	5421
1	1821	5422
1	1818	5423
1	1817	5424
1	1832	5425
1	1859	5426
1	1893	5427
1	1923	5428
1	1965	5429
1	2009	5430
1	2057	5431
1	2100	5432
1	2133	5433
1	2160	5434
1	2170	5435
1	2170	5436
1	2154	5437
1	2127	5438
1	2079	5439
1	2041	5440
1	1998	5441
1	1957	5442
1	1923	5443
1	1906	5444
1	1895	5445
1	1896	5446
1	1908	5447
1	1931	5448
1	1958	5449
1	1994	5450
1	2022	5451
1	2050	5452
1	2075	5453
1	2094	5454
1	2108	5455
1	2113	5456
1	2116	5457
1	2114	5458
1	2109	5459
1	2101	5460
1	2098	5461
1	2094	5462
1	2088	5463
1	2081	5464
1	2070	5465
1	2061	5466
1	2055	5467
1	2050	5468
1	2043	5469
1	2039	5470
1	2045	5471
1	2052	5472
1	2070	5473
1	2099	5474
1	2124	5475
1	2156	5476
1	2180	5477
1	2191	5478
1	2197	5479
1	2186	5480
1	2175	5481
1	2165	5482
1	2150	5483
1	2132	5484
1	2125	5485
1	2127	5486
1	2132	5487
1	2145	5488
1	2161	5489
1	2175	5490
1	2196	5491
1	2220	5492
1	2248	5493
1	2271	5494
1	2292	5495
1	2305	5496
1	2309	5497
1	2304	5498
1	2289	5499
1	2275	5500
1	2259	5501
1	2239	5502
1	2228	5503
1	2219	5504
1	2219	5505
1	2236	5506
1	2256	5507
1	2276	5508
1	2300	5509
1	2336	5510
1	2367	5511
1	2390	5512
1	2412	5513
1	2431	5514
1	2446	5515
1	2458	5516
1	2462	5517
1	2459	5518
1	2449	5519
1	2429	5520
1	2408	5521
1	2392	5522
1	2372	5523
1	2355	5524
1	2349	5525
1	2336	5526
1	2341	5527
1	2348	5528
1	2356	5529
1	2368	5530
1	2387	5531
1	2407	5532
1	2425	5533
1	2437	5534
1	2426	5535
1	2415	5536
1	2394	5537
1	2371	5538
1	2342	5539
1	2309	5540
1	2275	5541
1	2237	5542
1	2209	5543
1	2184	5544
1	2172	5545
1	2174	5546
1	2194	5547
1	2234	5548
1	2287	5549
1	2346	5550
1	2424	5551
1	2495	5552
1	2536	5553
1	2576	5554
1	2601	5555
1	2599	5556
1	2582	5557
1	2552	5558
1	2513	5559
1	2461	5560
1	2399	5561
1	2340	5562
1	2282	5563
1	2233	5564
1	2178	5565
1	2140	5566
1	2107	5567
1	2091	5568
1	2088	5569
1	2088	5570
1	2093	5571
1	2102	5572
1	2110	5573
1	2118	5574
1	2125	5575
1	2131	5576
1	2131	5577
1	2129	5578
1	2119	5579
1	2104	5580
1	2090	5581
1	2079	5582
1	2079	5583
1	2084	5584
1	2107	5585
1	2122	5586
1	2133	5587
1	2154	5588
1	2169	5589
1	2181	5590
1	2188	5591
1	2194	5592
1	2202	5593
1	2207	5594
1	2197	5595
1	2184	5596
1	2163	5597
1	2129	5598
1	2090	5599
1	2063	5600
1	2030	5601
1	2006	5602
1	1989	5603
1	1974	5604
1	1970	5605
1	1970	5606
1	1970	5607
1	1974	5608
1	1977	5609
1	1975	5610
1	1976	5611
1	1975	5612
1	1978	5613
1	1993	5614
1	2000	5615
1	2014	5616
1	2036	5617
1	2058	5618
1	2075	5619
1	2089	5620
1	2093	5621
1	2100	5622
1	2105	5623
1	2106	5624
1	2106	5625
1	2106	5626
1	2106	5627
1	2106	5628
1	2109	5629
1	2106	5630
1	2113	5631
1	2107	5632
1	2108	5633
1	2105	5634
1	2093	5635
1	2077	5636
1	2054	5637
1	2034	5638
1	2016	5639
1	1991	5640
1	1974	5641
1	1958	5642
1	1944	5643
1	1926	5644
1	1922	5645
1	1913	5646
1	1906	5647
1	1904	5648
1	1908	5649
1	1914	5650
1	1922	5651
1	1932	5652
1	1943	5653
1	1953	5654
1	1958	5655
1	1967	5656
1	1972	5657
1	1971	5658
1	1973	5659
1	1963	5660
1	1958	5661
1	1970	5662
1	1989	5663
1	2016	5664
1	2043	5665
1	2061	5666
1	2079	5667
1	2100	5668
1	2120	5669
1	2133	5670
1	2153	5671
1	2161	5672
1	2171	5673
1	2185	5674
1	2197	5675
1	2209	5676
1	2215	5677
1	2215	5678
1	2206	5679
1	2179	5680
1	2140	5681
1	2105	5682
1	2066	5683
1	2034	5684
1	2004	5685
1	1991	5686
1	1983	5687
1	1978	5688
1	1993	5689
1	2000	5690
1	2007	5691
1	2011	5692
1	2004	5693
1	1996	5694
1	1980	5695
1	1968	5696
1	1957	5697
1	1947	5698
1	1933	5699
1	1919	5700
1	1917	5701
1	1926	5702
1	1942	5703
1	1964	5704
1	1985	5705
1	1999	5706
1	2002	5707
1	2003	5708
1	2006	5709
1	2004	5710
1	2000	5711
1	1991	5712
1	1984	5713
1	1970	5714
1	1949	5715
1	1948	5716
1	1949	5717
1	1961	5718
1	1977	5719
1	1997	5720
1	2017	5721
1	2026	5722
1	2043	5723
1	2039	5724
1	2030	5725
1	2024	5726
1	2011	5727
1	1999	5728
1	1986	5729
1	1974	5730
1	1959	5731
1	1946	5732
1	1924	5733
1	1906	5734
1	1883	5735
1	1869	5736
1	1854	5737
1	1845	5738
1	1837	5739
1	1836	5740
1	1841	5741
1	1847	5742
1	1856	5743
1	1872	5744
1	1895	5745
1	1922	5746
1	1956	5747
1	1987	5748
1	2016	5749
1	2043	5750
1	2052	5751
1	2052	5752
1	2043	5753
1	2031	5754
1	2015	5755
1	1988	5756
1	1958	5757
1	1913	5758
1	1862	5759
1	1800	5760
1	1751	5761
1	1714	5762
1	1687	5763
1	1673	5764
1	1666	5765
1	1668	5766
1	1683	5767
1	1712	5768
1	1751	5769
1	1800	5770
1	1855	5771
1	1900	5772
1	1946	5773
1	1981	5774
1	2001	5775
1	2012	5776
1	2013	5777
1	2008	5778
1	1992	5779
1	1955	5780
1	1908	5781
1	1857	5782
1	1809	5783
1	1762	5784
1	1731	5785
1	1710	5786
1	1697	5787
1	1688	5788
1	1686	5789
1	1686	5790
1	1700	5791
1	1726	5792
1	1765	5793
1	1817	5794
1	1856	5795
1	1878	5796
1	1887	5797
1	1885	5798
1	1877	5799
1	1856	5800
1	1823	5801
1	1778	5802
1	1737	5803
1	1695	5804
1	1658	5805
1	1636	5806
1	1633	5807
1	1639	5808
1	1660	5809
1	1688	5810
1	1718	5811
1	1751	5812
1	1777	5813
1	1796	5814
1	1815	5815
1	1817	5816
1	1802	5817
1	1782	5818
1	1759	5819
1	1729	5820
1	1700	5821
1	1675	5822
1	1660	5823
1	1647	5824
1	1648	5825
1	1655	5826
1	1670	5827
1	1685	5828
1	1701	5829
1	1717	5830
1	1733	5831
1	1742	5832
1	1749	5833
1	1755	5834
1	1753	5835
1	1755	5836
1	1755	5837
1	1752	5838
1	1751	5839
1	1739	5840
1	1737	5841
1	1733	5842
1	1724	5843
1	1719	5844
1	1728	5845
1	1751	5846
1	1776	5847
1	1798	5848
1	1816	5849
1	1823	5850
1	1834	5851
1	1843	5852
1	1844	5853
1	1843	5854
1	1836	5855
1	1812	5856
1	1764	5857
1	1712	5858
1	1660	5859
1	1503	5880
1	1478	5881
1	1470	5882
1	1476	5883
1	1503	5884
1	1544	5885
1	1581	5886
1	1620	5887
1	1660	5888
1	1687	5889
1	1697	5890
1	1687	5891
1	1672	5892
1	1648	5893
1	1626	5894
1	1596	5895
1	1571	5896
1	1540	5897
1	1510	5898
1	1481	5899
1	1618	5880
1	1580	5881
1	1543	5882
1	1517	5883
1	1504	5884
1	1503	5885
1	1525	5886
1	1551	5887
1	1586	5888
1	1615	5889
1	1638	5890
1	1652	5891
1	1657	5892
1	1659	5893
1	1660	5894
1	1654	5895
1	1634	5896
1	1607	5897
1	1562	5898
1	1530	5899
1	1466	5900
1	1450	5901
1	1436	5902
1	1424	5903
1	1417	5904
1	1418	5905
1	1427	5906
1	1441	5907
1	1455	5908
1	1466	5909
1	1472	5910
1	1477	5911
1	1490	5912
1	1508	5913
1	1528	5914
1	1523	5915
1	1503	5916
1	1476	5917
1	1440	5918
1	1398	5919
1	1593	5940
1	1539	5941
1	1479	5942
1	1424	5943
1	1371	5944
1	1340	5945
1	1314	5946
1	1293	5947
1	1280	5948
1	1269	5949
1	1259	5950
1	1247	5951
1	1242	5952
1	1242	5953
1	1244	5954
1	1242	5955
1	1243	5956
1	1243	5957
1	1245	5958
1	1251	5959
1	1346	5920
1	1293	5921
1	1233	5922
1	1184	5923
1	1148	5924
1	1129	5925
1	1133	5926
1	1152	5927
1	1186	5928
1	1238	5929
1	1295	5930
1	1372	5931
1	1450	5932
1	1538	5933
1	1616	5934
1	1677	5935
1	1710	5936
1	1712	5937
1	1688	5938
1	1647	5939
1	1253	5960
1	1263	5961
1	1281	5962
1	1314	5963
1	1346	5964
1	1372	5965
1	1396	5966
1	1399	5967
1	1402	5968
1	1399	5969
1	1392	5970
1	1384	5971
1	1382	5972
1	1377	5973
1	1376	5974
1	1369	5975
1	1368	5976
1	1377	5977
1	1400	5978
1	1425	5979
1	1443	5980
1	1463	5981
1	1468	5982
1	1469	5983
1	1467	5984
1	1464	5985
1	1461	5986
1	1453	5987
1	1448	5988
1	1437	5989
1	1441	5990
1	1442	5991
1	1449	5992
1	1454	5993
1	1459	5994
1	1455	5995
1	1449	5996
1	1437	5997
1	1424	5998
1	1408	5999
1	1377	6000
1	1346	6001
1	1314	6002
1	1275	6003
1	1238	6004
1	1207	6005
1	1179	6006
1	1159	6007
1	1136	6008
1	1121	6009
1	1116	6010
1	1130	6011
1	1163	6012
1	1214	6013
1	1269	6014
1	1328	6015
1	1384	6016
1	1436	6017
1	1467	6018
1	1490	6019
1	1500	6020
1	1494	6021
1	1481	6022
1	1477	6023
1	1472	6024
1	1472	6025
1	1481	6026
1	1499	6027
1	1526	6028
1	1549	6029
1	1571	6030
1	1586	6031
1	1593	6032
1	1595	6033
1	1590	6034
1	1572	6035
1	1557	6036
1	1534	6037
1	1503	6038
1	1463	6039
1	1476	6060
1	1476	6061
1	1476	6062
1	1487	6063
1	1515	6064
1	1548	6065
1	1593	6066
1	1643	6067
1	1699	6068
1	1760	6069
1	1821	6070
1	1869	6071
1	1903	6072
1	1920	6073
1	1920	6074
1	1894	6075
1	1852	6076
1	1791	6077
1	1726	6078
1	1665	6079
1	1419	6060
1	1369	6061
1	1319	6062
1	1276	6063
1	1243	6064
1	1215	6065
1	1202	6066
1	1197	6067
1	1196	6068
1	1204	6069
1	1222	6070
1	1247	6071
1	1283	6072
1	1327	6073
1	1373	6074
1	1419	6075
1	1450	6076
1	1473	6077
1	1479	6078
1	1481	6079
1	1603	6080
1	1539	6081
1	1488	6082
1	1448	6083
1	1418	6084
1	1398	6085
1	1397	6086
1	1407	6087
1	1424	6088
1	1449	6089
1	1474	6090
1	1503	6091
1	1535	6092
1	1567	6093
1	1603	6094
1	1629	6095
1	1648	6096
1	1660	6097
1	1660	6098
1	1655	6099
1	1643	6100
1	1629	6101
1	1613	6102
1	1594	6103
1	1573	6104
1	1548	6105
1	1529	6106
1	1521	6107
1	1526	6108
1	1549	6109
1	1580	6110
1	1610	6111
1	1648	6112
1	1686	6113
1	1716	6114
1	1737	6115
1	1741	6116
1	1740	6117
1	1724	6118
1	1703	6119
1	1682	6120
1	1679	6121
1	1679	6122
1	1681	6123
1	1683	6124
1	1692	6125
1	1711	6126
1	1737	6127
1	1759	6128
1	1791	6129
1	1816	6130
1	1831	6131
1	1837	6132
1	1834	6133
1	1817	6134
1	1786	6135
1	1751	6136
1	1712	6137
1	1679	6138
1	1647	6139
1	1607	6140
1	1584	6141
1	1572	6142
1	1566	6143
1	1581	6144
1	1613	6145
1	1660	6146
1	1712	6147
1	1763	6148
1	1813	6149
1	1842	6150
1	1867	6151
1	1890	6152
1	1908	6153
1	1922	6154
1	1932	6155
1	1922	6156
1	1908	6157
1	1890	6158
1	1870	6159
1	1849	6160
1	1828	6161
1	1816	6162
1	1817	6163
1	1821	6164
1	1823	6165
1	1833	6166
1	1840	6167
1	1844	6168
1	1856	6169
1	1855	6170
1	1849	6171
1	1844	6172
1	1847	6173
1	1860	6174
1	1885	6175
1	1916	6176
1	1940	6177
1	1960	6178
1	1970	6179
1	1968	6180
1	1965	6181
1	1955	6182
1	1937	6183
1	1913	6184
1	1888	6185
1	1855	6186
1	1836	6187
1	1831	6188
1	1841	6189
1	1859	6190
1	1890	6191
1	1914	6192
1	1933	6193
1	1940	6194
1	1932	6195
1	1922	6196
1	1911	6197
1	1901	6198
1	1900	6199
1	1911	6200
1	1918	6201
1	1922	6202
1	1925	6203
1	1923	6204
1	1914	6205
1	1897	6206
1	1881	6207
1	1856	6208
1	1837	6209
1	1816	6210
1	1801	6211
1	1793	6212
1	1791	6213
1	1793	6214
1	1796	6215
1	1803	6216
1	1817	6217
1	1823	6218
1	1824	6219
1	2318	6240
1	2337	6241
1	2365	6242
1	2394	6243
1	2435	6244
1	2489	6245
1	2532	6246
1	2585	6247
1	2644	6248
1	2700	6249
1	2748	6250
1	2792	6251
1	2827	6252
1	2852	6253
1	2871	6254
1	2889	6255
1	2893	6256
1	2880	6257
1	2843	6258
1	2786	6259
1	1817	6240
1	1800	6241
1	1778	6242
1	1762	6243
1	1752	6244
1	1762	6245
1	1778	6246
1	1802	6247
1	1845	6248
1	1898	6249
1	1963	6250
1	2025	6251
1	2078	6252
1	2131	6253
1	2175	6254
1	2218	6255
1	2258	6256
1	2282	6257
1	2297	6258
1	2310	6259
1	2717	6260
1	2642	6261
1	2558	6262
1	2479	6263
1	2393	6264
1	2310	6265
1	2240	6266
1	2178	6267
1	2120	6268
1	2066	6269
1	2006	6270
1	1959	6271
1	1910	6272
1	1869	6273
1	1835	6274
1	1790	6275
1	1750	6276
1	1717	6277
1	1688	6278
1	1664	6279
1	2170	6300
1	2146	6301
1	2114	6302
1	2079	6303
1	2041	6304
1	2018	6305
1	1998	6306
1	1989	6307
1	1989	6308
1	1998	6309
1	2004	6310
1	2013	6311
1	2027	6312
1	2052	6313
1	2074	6314
1	2081	6315
1	2087	6316
1	2089	6317
1	2084	6318
1	2084	6319
1	1642	6280
1	1617	6281
1	1593	6282
1	1578	6283
1	1577	6284
1	1593	6285
1	1623	6286
1	1665	6287
1	1717	6288
1	1778	6289
1	1855	6290
1	1917	6291
1	1975	6292
1	2039	6293
1	2102	6294
1	2152	6295
1	2184	6296
1	2205	6297
1	2206	6298
1	2194	6299
1	2066	6320
1	2052	6321
1	2041	6322
1	2022	6323
1	2025	6324
1	2017	6325
1	2025	6326
1	2040	6327
1	2058	6328
1	2079	6329
1	2102	6330
1	2118	6331
1	2132	6332
1	2137	6333
1	2138	6334
1	2131	6335
1	2125	6336
1	2114	6337
1	2105	6338
1	2097	6339
1	2083	6340
1	2073	6341
1	2062	6342
1	2052	6343
1	2052	6344
1	2040	6345
1	2042	6346
1	2043	6347
1	2044	6348
1	2052	6349
1	2075	6350
1	2093	6351
1	2124	6352
1	2157	6353
1	2194	6354
1	2232	6355
1	2260	6356
1	2278	6357
1	2288	6358
1	2288	6359
1	2273	6360
1	2262	6361
1	2245	6362
1	2215	6363
1	2196	6364
1	2166	6365
1	2142	6366
1	2127	6367
1	2122	6368
1	2126	6369
1	2133	6370
1	2156	6371
1	2183	6372
1	2210	6373
1	2239	6374
1	2251	6375
1	2260	6376
1	2261	6377
1	2253	6378
1	2253	6379
1	2243	6380
1	2215	6381
1	2196	6382
1	2160	6383
1	2131	6384
1	2117	6385
1	2109	6386
1	2110	6387
1	2119	6388
1	2138	6389
1	2161	6390
1	2192	6391
1	2221	6392
1	2246	6393
1	2269	6394
1	2290	6395
1	2306	6396
1	2313	6397
1	2313	6398
1	2307	6399
1	2297	6400
1	2288	6401
1	2287	6402
1	2288	6403
1	2296	6404
1	2299	6405
1	2309	6406
1	2314	6407
1	2325	6408
1	2340	6409
1	2367	6410
1	2391	6411
1	2404	6412
1	2411	6413
1	2402	6414
1	2384	6415
1	2354	6416
1	2320	6417
1	2289	6418
1	2262	6419
1	2222	6420
1	2194	6421
1	2168	6422
1	2146	6423
1	2133	6424
1	2136	6425
1	2134	6426
1	2133	6427
1	2154	6428
1	2173	6429
1	2207	6430
1	2257	6431
1	2312	6432
1	2370	6433
1	2435	6434
1	2484	6435
1	2513	6436
1	2532	6437
1	2550	6438
1	2560	6439
1	2556	6440
1	2555	6441
1	2543	6442
1	2523	6443
1	2501	6444
1	2477	6445
1	2454	6446
1	2444	6447
1	2440	6448
1	2444	6449
1	2447	6450
1	2461	6451
1	2473	6452
1	2488	6453
1	2497	6454
1	2513	6455
1	2516	6456
1	2521	6457
1	2524	6458
1	2535	6459
1	2543	6460
1	2557	6461
1	2561	6462
1	2569	6463
1	2571	6464
1	2570	6465
1	2577	6466
1	2582	6467
1	2591	6468
1	2604	6469
1	2617	6470
1	2623	6471
1	2630	6472
1	2633	6473
1	2638	6474
1	2647	6475
1	2653	6476
1	2653	6477
1	2647	6478
1	2643	6479
1	2621	6500
1	2604	6501
1	2592	6502
1	2583	6503
1	2573	6504
1	2568	6505
1	2563	6506
1	2561	6507
1	2562	6508
1	2557	6509
1	2548	6510
1	2546	6511
1	2547	6512
1	2546	6513
1	2546	6514
1	2535	6515
1	2521	6516
1	2508	6517
1	2488	6518
1	2461	6519
1	2627	6480
1	2619	6481
1	2602	6482
1	2591	6483
1	2591	6484
1	2585	6485
1	2581	6486
1	2573	6487
1	2570	6488
1	2570	6489
1	2571	6490
1	2577	6491
1	2590	6492
1	2608	6493
1	2628	6494
1	2633	6495
1	2641	6496
1	2642	6497
1	2637	6498
1	2635	6499
1	2435	6520
1	2412	6521
1	2384	6522
1	2367	6523
1	2357	6524
1	2346	6525
1	2332	6526
1	2315	6527
1	2314	6528
1	2320	6529
1	2339	6530
1	2359	6531
1	2387	6532
1	2419	6533
1	2440	6534
1	2445	6535
1	2444	6536
1	2430	6537
1	2402	6538
1	2367	6539
1	2325	6540
1	2288	6541
1	2260	6542
1	2228	6543
1	2193	6544
1	2176	6545
1	2153	6546
1	2131	6547
1	2117	6548
1	2106	6549
1	2099	6550
1	2091	6551
1	2083	6552
1	2087	6553
1	2089	6554
1	2079	6555
1	2083	6556
1	2095	6557
1	2107	6558
1	2125	6559
1	2170	6580
1	2171	6581
1	2161	6582
1	2145	6583
1	2130	6584
1	2115	6585
1	2111	6586
1	2119	6587
1	2137	6588
1	2163	6589
1	2183	6590
1	2196	6591
1	2204	6592
1	2208	6593
1	2198	6594
1	2193	6595
1	2192	6596
1	2188	6597
1	2188	6598
1	2180	6599
1	2126	6560
1	2114	6561
1	2096	6562
1	2074	6563
1	2050	6564
1	2026	6565
1	2007	6566
1	1989	6567
1	1970	6568
1	1955	6569
1	1944	6570
1	1940	6571
1	1952	6572
1	1980	6573
1	2025	6574
1	2062	6575
1	2100	6576
1	2133	6577
1	2152	6578
1	2163	6579
1	2157	6600
1	2129	6601
1	2094	6602
1	2058	6603
1	2027	6604
1	2013	6605
1	2001	6606
1	2000	6607
1	2009	6608
1	2026	6609
1	2050	6610
1	2074	6611
1	2101	6612
1	2124	6613
1	2153	6614
1	2160	6615
1	2170	6616
1	2166	6617
1	2155	6618
1	2139	6619
1	2109	6620
1	2079	6621
1	2055	6622
1	2027	6623
1	2029	6624
1	2023	6625
1	2014	6626
1	2012	6627
1	2008	6628
1	2011	6629
1	2021	6630
1	2048	6631
1	2079	6632
1	2119	6633
1	2150	6634
1	2170	6635
1	2170	6636
1	2157	6637
1	2141	6638
1	2114	6639
1	2082	6640
1	2058	6641
1	2034	6642
1	2012	6643
1	1987	6644
1	1957	6645
1	1933	6646
1	1917	6647
1	1916	6648
1	1920	6649
1	1926	6650
1	1947	6651
1	1976	6652
1	2025	6653
1	2069	6654
1	2106	6655
1	2131	6656
1	2153	6657
1	2162	6658
1	2170	6659
1	2165	6660
1	2163	6661
1	2162	6662
1	2169	6663
1	2175	6664
1	2191	6665
1	2197	6666
1	2207	6667
1	2215	6668
1	2236	6669
1	2255	6670
1	2272	6671
1	2288	6672
1	2302	6673
1	2304	6674
1	2284	6675
1	2256	6676
1	2210	6677
1	2165	6678
1	2116	6679
1	2061	6680
1	2017	6681
1	1984	6682
1	1966	6683
1	1952	6684
1	1948	6685
1	1959	6686
1	1977	6687
1	2009	6688
1	2049	6689
1	2080	6690
1	2115	6691
1	2145	6692
1	2182	6693
1	2217	6694
1	2246	6695
1	2265	6696
1	2281	6697
1	2291	6698
1	2288	6699
1	2273	6700
1	2246	6701
1	2207	6702
1	2172	6703
1	2137	6704
1	2097	6705
1	2065	6706
1	2035	6707
1	2013	6708
1	2003	6709
1	2016	6710
1	2034	6711
1	2066	6712
1	2111	6713
1	2162	6714
1	2201	6715
1	2234	6716
1	2248	6717
1	2255	6718
1	2251	6719
1	2228	6720
1	2202	6721
1	2176	6722
1	2146	6723
1	2105	6724
1	2076	6725
1	2045	6726
1	2024	6727
1	2014	6728
1	2015	6729
1	2029	6730
1	2052	6731
1	2081	6732
1	2120	6733
1	2161	6734
1	2194	6735
1	2233	6736
1	2255	6737
1	2260	6738
1	2242	6739
1	2210	6740
1	2167	6741
1	2123	6742
1	2073	6743
1	2026	6744
1	1996	6745
1	1978	6746
1	1974	6747
1	1976	6748
1	1992	6749
1	2007	6750
1	2030	6751
1	2057	6752
1	2079	6753
1	2101	6754
1	2122	6755
1	2131	6756
1	2133	6757
1	2137	6758
1	2135	6759
1	2126	6760
1	2107	6761
1	2092	6762
1	2070	6763
1	2052	6764
1	2027	6765
1	2012	6766
1	2007	6767
1	2016	6768
1	2043	6769
1	2065	6770
1	2088	6771
1	2111	6772
1	2132	6773
1	2152	6774
1	2168	6775
1	2181	6776
1	2183	6777
1	2174	6778
1	2166	6779
1	2147	6780
1	2119	6781
1	2087	6782
1	2055	6783
1	2037	6784
1	2019	6785
1	2013	6786
1	2017	6787
1	2035	6788
1	2057	6789
1	2079	6790
1	2094	6791
1	2105	6792
1	2117	6793
1	2124	6794
1	2120	6795
1	2129	6796
1	2137	6797
1	2148	6798
1	2156	6799
1	2156	6800
1	2137	6801
1	2106	6802
1	2073	6803
1	2040	6804
1	2019	6805
1	2000	6806
1	1986	6807
1	1978	6808
1	1982	6809
1	1987	6810
1	2000	6811
1	2013	6812
1	2021	6813
1	2029	6814
1	2034	6815
1	2039	6816
1	2039	6817
1	2029	6818
1	2012	6819
1	1988	6820
1	1965	6821
1	1933	6822
1	1914	6823
1	1901	6824
1	1901	6825
1	1908	6826
1	1931	6827
1	1962	6828
1	2000	6829
1	2048	6830
1	2079	6831
1	2106	6832
1	2120	6833
1	2131	6834
1	2118	6835
1	2101	6836
1	2080	6837
1	2058	6838
1	2034	6839
1	1997	6840
1	1953	6841
1	1909	6842
1	1870	6843
1	1845	6844
1	1834	6845
1	1820	6846
1	1817	6847
1	1827	6848
1	1848	6849
1	1875	6850
1	1904	6851
1	1935	6852
1	1962	6853
1	1978	6854
1	1983	6855
1	1993	6856
1	2004	6857
1	2016	6858
1	2027	6859
1	2026	6860
1	2026	6861
1	2016	6862
1	2005	6863
1	1984	6864
1	1958	6865
1	1929	6866
1	1908	6867
1	1895	6868
1	1895	6869
1	1886	6870
1	1890	6871
1	1897	6872
1	1921	6873
1	1953	6874
1	1978	6875
1	2004	6876
1	2030	6877
1	2053	6878
1	2079	6879
1	2090	6880
1	2084	6881
1	2075	6882
1	2061	6883
1	2050	6884
1	2022	6885
1	2000	6886
1	1985	6887
1	1971	6888
1	1969	6889
1	1961	6890
1	1958	6891
1	1960	6892
1	1961	6893
1	1953	6894
1	1942	6895
1	1927	6896
1	1913	6897
1	1900	6898
1	1890	6899
1	1869	6900
1	1854	6901
1	1837	6902
1	1818	6903
1	1800	6904
1	1792	6905
1	1787	6906
1	1780	6907
1	1780	6908
1	1788	6909
1	1796	6910
1	1818	6911
1	1842	6912
1	1865	6913
1	1880	6914
1	1880	6915
1	1878	6916
1	1877	6917
1	1877	6918
1	1881	6919
1	1873	6920
1	1865	6921
1	1851	6922
1	1821	6923
1	1812	6924
1	1798	6925
1	1798	6926
1	1809	6927
1	1822	6928
1	1849	6929
1	1881	6930
1	1904	6931
1	1922	6932
1	1927	6933
1	1927	6934
1	1926	6935
1	1919	6936
1	1908	6937
1	1892	6938
1	1865	6939
1	1830	6940
1	1792	6941
1	1760	6942
1	1737	6943
1	1727	6944
1	1729	6945
1	1746	6946
1	1773	6947
1	1809	6948
1	1842	6949
1	1872	6950
1	1893	6951
1	1898	6952
1	1904	6953
1	1899	6954
1	1883	6955
1	1859	6956
1	1826	6957
1	1778	6958
1	1729	6959
1	1680	6960
1	1646	6961
1	1620	6962
1	1607	6963
1	1609	6964
1	1628	6965
1	1658	6966
1	1694	6967
1	1737	6968
1	1773	6969
1	1808	6970
1	1825	6971
1	1834	6972
1	1834	6973
1	1830	6974
1	1818	6975
1	1815	6976
1	1801	6977
1	1792	6978
1	1792	6979
1	1781	6980
1	1765	6981
1	1751	6982
1	1734	6983
1	1716	6984
1	1706	6985
1	1694	6986
1	1686	6987
1	1686	6988
1	1698	6989
1	1716	6990
1	1746	6991
1	1776	6992
1	1798	6993
1	1817	6994
1	1825	6995
1	1818	6996
1	1800	6997
1	1778	6998
1	1754	6999
1	1738	7000
1	1721	7001
1	1707	7002
1	1696	7003
1	1687	7004
1	1685	7005
1	1683	7006
1	1686	7007
1	1688	7008
1	1699	7009
1	1708	7010
1	1718	7011
1	1726	7012
1	1727	7013
1	1726	7014
1	1726	7015
1	1724	7016
1	1718	7017
1	1711	7018
1	1705	7019
1	1724	7040
1	1660	7041
1	1605	7042
1	1563	7043
1	1539	7044
1	1532	7045
1	1537	7046
1	1551	7047
1	1574	7048
1	1604	7049
1	1635	7050
1	1674	7051
1	1712	7052
1	1751	7053
1	1778	7054
1	1808	7055
1	1809	7056
1	1791	7057
1	1767	7058
1	1742	7059
1	1730	7080
1	1701	7081
1	1670	7082
1	1632	7083
1	1597	7084
1	1569	7085
1	1553	7086
1	1541	7087
1	1539	7088
1	1548	7089
1	1561	7090
1	1580	7091
1	1604	7092
1	1634	7093
1	1658	7094
1	1664	7095
1	1665	7096
1	1660	7097
1	1643	7098
1	1620	7099
1	1712	7060
1	1672	7061
1	1628	7062
1	1583	7063
1	1553	7064
1	1526	7065
1	1514	7066
1	1527	7067
1	1551	7068
1	1589	7069
1	1626	7070
1	1670	7071
1	1711	7072
1	1742	7073
1	1764	7074
1	1778	7075
1	1788	7076
1	1790	7077
1	1778	7078
1	1760	7079
1	1687	7020
1	1670	7021
1	1647	7022
1	1623	7023
1	1602	7024
1	1598	7025
1	1597	7026
1	1607	7027
1	1620	7028
1	1638	7029
1	1659	7030
1	1686	7031
1	1719	7032
1	1758	7033
1	1798	7034
1	1832	7035
1	1854	7036
1	1858	7037
1	1841	7038
1	1791	7039
1	1593	7100
1	1553	7101
1	1508	7102
1	1479	7103
1	1467	7104
1	1471	7105
1	1481	7106
1	1493	7107
1	1507	7108
1	1528	7109
1	1543	7110
1	1557	7111
1	1577	7112
1	1586	7113
1	1597	7114
1	1594	7115
1	1590	7116
1	1585	7117
1	1587	7118
1	1590	7119
1	1589	7120
1	1583	7121
1	1571	7122
1	1566	7123
1	1563	7124
1	1571	7125
1	1581	7126
1	1594	7127
1	1608	7128
1	1629	7129
1	1646	7130
1	1659	7131
1	1665	7132
1	1682	7133
1	1681	7134
1	1679	7135
1	1671	7136
1	1660	7137
1	1639	7138
1	1616	7139
1	1585	7140
1	1555	7141
1	1517	7142
1	1481	7143
1	1453	7144
1	1437	7145
1	1426	7146
1	1424	7147
1	1432	7148
1	1445	7149
1	1467	7150
1	1494	7151
1	1526	7152
1	1553	7153
1	1577	7154
1	1582	7155
1	1582	7156
1	1568	7157
1	1542	7158
1	1508	7159
1	1473	7160
1	1436	7161
1	1402	7162
1	1374	7163
1	1358	7164
1	1350	7165
1	1358	7166
1	1373	7167
1	1399	7168
1	1423	7169
1	1439	7170
1	1456	7171
1	1468	7172
1	1476	7173
1	1490	7174
1	1506	7175
1	1531	7176
1	1571	7177
1	1614	7178
1	1660	7179
1	1712	7180
1	1764	7181
1	1825	7182
1	1892	7183
1	1961	7184
1	2032	7185
1	2116	7186
1	2199	7187
1	2283	7188
1	2367	7189
1	2432	7190
1	2485	7191
1	2515	7192
1	2532	7193
1	2535	7194
1	2527	7195
1	2511	7196
1	2484	7197
1	2444	7198
1	2401	7199
1	2352	7200
1	2310	7201
1	2263	7202
1	2215	7203
1	2163	7204
1	2112	7205
1	2045	7206
1	1970	7207
1	1882	7208
1	1783	7209
1	1686	7210
1	1590	7211
1	1499	7212
1	1420	7213
1	1355	7214
1	1311	7215
1	1285	7216
1	1266	7217
1	1243	7218
1	1228	7219
1	1206	7220
1	1189	7221
1	1181	7222
1	1169	7223
1	1166	7224
1	1164	7225
1	1168	7226
1	1184	7227
1	1202	7228
1	1232	7229
1	1267	7230
1	1304	7231
1	1341	7232
1	1375	7233
1	1412	7234
1	1441	7235
1	1467	7236
1	1482	7237
1	1494	7238
1	1491	7239
1	1484	7240
1	1474	7241
1	1458	7242
1	1446	7243
1	1431	7244
1	1422	7245
1	1418	7246
1	1420	7247
1	1420	7248
1	1423	7249
1	1436	7250
1	1443	7251
1	1454	7252
1	1464	7253
1	1476	7254
1	1480	7255
1	1491	7256
1	1504	7257
1	1517	7258
1	1525	7259
1	1521	7260
1	1526	7261
1	1521	7262
1	1515	7263
1	1507	7264
1	1487	7265
1	1466	7266
1	1448	7267
1	1439	7268
1	1442	7269
1	1456	7270
1	1476	7271
1	1500	7272
1	1527	7273
1	1557	7274
1	1584	7275
1	1610	7276
1	1627	7277
1	1629	7278
1	1620	7279
1	1592	7280
1	1555	7281
1	1511	7282
1	1468	7283
1	1427	7284
1	1399	7285
1	1374	7286
1	1364	7287
1	1359	7288
1	1364	7289
1	1367	7290
1	1373	7291
1	1395	7292
1	1417	7293
1	1449	7294
1	1473	7295
1	1490	7296
1	1502	7297
1	1503	7298
1	1503	7299
1	1497	7300
1	1486	7301
1	1476	7302
1	1459	7303
1	1441	7304
1	1427	7305
1	1427	7306
1	1441	7307
1	1468	7308
1	1505	7309
1	1539	7310
1	1571	7311
1	1596	7312
1	1618	7313
1	1638	7314
1	1654	7315
1	1664	7316
1	1669	7317
1	1666	7318
1	1664	7319
1	1507	7340
1	1503	7341
1	1508	7342
1	1517	7343
1	1534	7344
1	1548	7345
1	1561	7346
1	1573	7347
1	1580	7348
1	1584	7349
1	1584	7350
1	1584	7351
1	1581	7352
1	1571	7353
1	1559	7354
1	1549	7355
1	1529	7356
1	1518	7357
1	1512	7358
1	1505	7359
1	1652	7320
1	1633	7321
1	1608	7322
1	1584	7323
1	1557	7324
1	1540	7325
1	1514	7326
1	1485	7327
1	1467	7328
1	1466	7329
1	1463	7330
1	1469	7331
1	1478	7332
1	1488	7333
1	1500	7334
1	1506	7335
1	1519	7336
1	1527	7337
1	1526	7338
1	1515	7339
1	1505	7360
1	1513	7361
1	1516	7362
1	1520	7363
1	1520	7364
1	1516	7365
1	1521	7366
1	1527	7367
1	1529	7368
1	1539	7369
1	1544	7370
1	1554	7371
1	1564	7372
1	1581	7373
1	1603	7374
1	1619	7375
1	1625	7376
1	1626	7377
1	1618	7378
1	1608	7379
1	1594	7380
1	1590	7381
1	1594	7382
1	1598	7383
1	1607	7384
1	1606	7385
1	1603	7386
1	1606	7387
1	1613	7388
1	1625	7389
1	1643	7390
1	1661	7391
1	1689	7392
1	1714	7393
1	1740	7394
1	1755	7395
1	1768	7396
1	1782	7397
1	1792	7398
1	1817	7399
1	1822	7400
1	1819	7401
1	1796	7402
1	1770	7403
1	1749	7404
1	1728	7405
1	1701	7406
1	1679	7407
1	1658	7408
1	1643	7409
1	1630	7410
1	1633	7411
1	1644	7412
1	1670	7413
1	1705	7414
1	1737	7415
1	1757	7416
1	1770	7417
1	1772	7418
1	1764	7419
1	1749	7420
1	1738	7421
1	1722	7422
1	1713	7423
1	1711	7424
1	1715	7425
1	1724	7426
1	1738	7427
1	1755	7428
1	1773	7429
1	1803	7430
1	1830	7431
1	1855	7432
1	1882	7433
1	1911	7434
1	1927	7435
1	1931	7436
1	1919	7437
1	1896	7438
1	1862	7439
1	1371	7480
1	1333	7481
1	1297	7482
1	1261	7483
1	1237	7484
1	1229	7485
1	1240	7486
1	1260	7487
1	1284	7488
1	1317	7489
1	1346	7490
1	1373	7491
1	1399	7492
1	1418	7493
1	1429	7494
1	1441	7495
1	1450	7496
1	1449	7497
1	1435	7498
1	1413	7499
1	1542	7460
1	1521	7461
1	1507	7462
1	1503	7463
1	1503	7464
1	1513	7465
1	1529	7466
1	1546	7467
1	1572	7468
1	1594	7469
1	1606	7470
1	1613	7471
1	1610	7472
1	1598	7473
1	1582	7474
1	1554	7475
1	1521	7476
1	1486	7477
1	1449	7478
1	1412	7479
1	1823	7440
1	1791	7441
1	1764	7442
1	1749	7443
1	1737	7444
1	1736	7445
1	1738	7446
1	1744	7447
1	1751	7448
1	1752	7449
1	1751	7450
1	1739	7451
1	1718	7452
1	1692	7453
1	1661	7454
1	1631	7455
1	1608	7456
1	1593	7457
1	1577	7458
1	1559	7459
1	1382	7500
1	1360	7501
1	1343	7502
1	1321	7503
1	1301	7504
1	1275	7505
1	1260	7506
1	1256	7507
1	1264	7508
1	1279	7509
1	1297	7510
1	1320	7511
1	1345	7512
1	1368	7513
1	1384	7514
1	1396	7515
1	1393	7516
1	1373	7517
1	1351	7518
1	1332	7519
1	1305	7520
1	1292	7521
1	1278	7522
1	1271	7523
1	1267	7524
1	1269	7525
1	1285	7526
1	1305	7527
1	1325	7528
1	1346	7529
1	1359	7530
1	1364	7531
1	1364	7532
1	1363	7533
1	1360	7534
1	1361	7535
1	1361	7536
1	1367	7537
1	1373	7538
1	1382	7539
1	1379	7540
1	1371	7541
1	1355	7542
1	1332	7543
1	1310	7544
1	1285	7545
1	1275	7546
1	1273	7547
1	1273	7548
1	1276	7549
1	1291	7550
1	1312	7551
1	1341	7552
1	1373	7553
1	1414	7554
1	1446	7555
1	1475	7556
1	1495	7557
1	1503	7558
1	1503	7559
1	1482	7560
1	1464	7561
1	1446	7562
1	1427	7563
1	1412	7564
1	1382	7565
1	1347	7566
1	1319	7567
1	1301	7568
1	1293	7569
1	1295	7570
1	1302	7571
1	1315	7572
1	1329	7573
1	1343	7574
1	1350	7575
1	1359	7576
1	1373	7577
1	1393	7578
1	1411	7579
1	1424	7580
1	1432	7581
1	1436	7582
1	1437	7583
1	1436	7584
1	1437	7585
1	1441	7586
1	1451	7587
1	1464	7588
1	1476	7589
1	1478	7590
1	1482	7591
1	1485	7592
1	1481	7593
1	1479	7594
1	1463	7595
1	1438	7596
1	1410	7597
1	1375	7598
1	1350	7599
1	1335	7600
1	1324	7601
1	1314	7602
1	1302	7603
1	1301	7604
1	1307	7605
1	1325	7606
1	1346	7607
1	1373	7608
1	1407	7609
1	1433	7610
1	1456	7611
1	1481	7612
1	1505	7613
1	1526	7614
1	1536	7615
1	1540	7616
1	1529	7617
1	1516	7618
1	1501	7619
1	1475	7620
1	1455	7621
1	1438	7622
1	1420	7623
1	1403	7624
1	1401	7625
1	1399	7626
1	1396	7627
1	1404	7628
1	1415	7629
1	1428	7630
1	1449	7631
1	1471	7632
1	1494	7633
1	1515	7634
1	1529	7635
1	1539	7636
1	1542	7637
1	1539	7638
1	1524	7639
1	1503	7640
1	1482	7641
1	1458	7642
1	1441	7643
1	1416	7644
1	1396	7645
1	1381	7646
1	1377	7647
1	1384	7648
1	1398	7649
1	1407	7650
1	1419	7651
1	1432	7652
1	1451	7653
1	1478	7654
1	1512	7655
1	1539	7656
1	1555	7657
1	1555	7658
1	1549	7659
1	1493	7680
1	1476	7681
1	1454	7682
1	1440	7683
1	1436	7684
1	1430	7685
1	1430	7686
1	1434	7687
1	1440	7688
1	1451	7689
1	1471	7690
1	1490	7691
1	1515	7692
1	1539	7693
1	1559	7694
1	1574	7695
1	1582	7696
1	1587	7697
1	1581	7698
1	1580	7699
1	1534	7660
1	1519	7661
1	1503	7662
1	1491	7663
1	1481	7664
1	1471	7665
1	1467	7666
1	1467	7667
1	1475	7668
1	1485	7669
1	1490	7670
1	1489	7671
1	1491	7672
1	1494	7673
1	1499	7674
1	1501	7675
1	1503	7676
1	1510	7677
1	1515	7678
1	1512	7679
1	1557	7700
1	1530	7701
1	1500	7702
1	1466	7703
1	1437	7704
1	1419	7705
1	1409	7706
1	1411	7707
1	1424	7708
1	1443	7709
1	1462	7710
1	1486	7711
1	1515	7712
1	1544	7713
1	1580	7714
1	1605	7715
1	1625	7716
1	1629	7717
1	1610	7718
1	1583	7719
1	1547	7720
1	1518	7721
1	1481	7722
1	1454	7723
1	1437	7724
1	1432	7725
1	1437	7726
1	1450	7727
1	1476	7728
1	1494	7729
1	1527	7730
1	1547	7731
1	1563	7732
1	1571	7733
1	1581	7734
1	1577	7735
1	1572	7736
1	1566	7737
1	1553	7738
1	1531	7739
1	1504	7740
1	1490	7741
1	1474	7742
1	1459	7743
1	1451	7744
1	1452	7745
1	1450	7746
1	1451	7747
1	1456	7748
1	1467	7749
1	1477	7750
1	1489	7751
1	1497	7752
1	1508	7753
1	1517	7754
1	1513	7755
1	1516	7756
1	1512	7757
1	1511	7758
1	1515	7759
1	1512	7760
1	1503	7761
1	1494	7762
1	1492	7763
1	1498	7764
1	1512	7765
1	1529	7766
1	1542	7767
1	1555	7768
1	1572	7769
1	1585	7770
1	1607	7771
1	1628	7772
1	1641	7773
1	1653	7774
1	1649	7775
1	1634	7776
1	1607	7777
1	1570	7778
1	1530	7779
1	1490	7780
1	1451	7781
1	1422	7782
1	1398	7783
1	1378	7784
1	1372	7785
1	1380	7786
1	1410	7787
1	1444	7788
1	1477	7789
1	1508	7790
1	1541	7791
1	1570	7792
1	1590	7793
1	1607	7794
1	1618	7795
1	1620	7796
1	1613	7797
1	1607	7798
1	1593	7799
1	1572	7800
1	1555	7801
1	1539	7802
1	1531	7803
1	1538	7804
1	1542	7805
1	1551	7806
1	1555	7807
1	1559	7808
1	1560	7809
1	1560	7810
1	1557	7811
1	1555	7812
1	1546	7813
1	1542	7814
1	1531	7815
1	1530	7816
1	1528	7817
1	1526	7818
1	1531	7819
1	1533	7820
1	1537	7821
1	1543	7822
1	1547	7823
1	1546	7824
1	1550	7825
1	1555	7826
1	1555	7827
1	1551	7828
1	1543	7829
1	1537	7830
1	1538	7831
1	1543	7832
1	1555	7833
1	1555	7834
1	1553	7835
1	1544	7836
1	1535	7837
1	1521	7838
1	1513	7839
1	1495	7840
1	1487	7841
1	1490	7842
1	1500	7843
1	1514	7844
1	1529	7845
1	1544	7846
1	1566	7847
1	1587	7848
1	1607	7849
1	1625	7850
1	1625	7851
1	1624	7852
1	1620	7853
1	1613	7854
1	1607	7855
1	1602	7856
1	1598	7857
1	1598	7858
1	1598	7859
1	1600	7900
1	1574	7901
1	1546	7902
1	1516	7903
1	1490	7904
1	1469	7905
1	1467	7906
1	1476	7907
1	1494	7908
1	1518	7909
1	1546	7910
1	1579	7911
1	1607	7912
1	1638	7913
1	1669	7914
1	1695	7915
1	1710	7916
1	1712	7917
1	1708	7918
1	1690	7919
1	1593	7880
1	1572	7881
1	1553	7882
1	1533	7883
1	1520	7884
1	1516	7885
1	1521	7886
1	1529	7887
1	1540	7888
1	1555	7889
1	1567	7890
1	1582	7891
1	1599	7892
1	1613	7893
1	1639	7894
1	1651	7895
1	1656	7896
1	1655	7897
1	1643	7898
1	1622	7899
1	1589	7860
1	1580	7861
1	1564	7862
1	1548	7863
1	1538	7864
1	1523	7865
1	1507	7866
1	1497	7867
1	1490	7868
1	1500	7869
1	1512	7870
1	1529	7871
1	1546	7872
1	1567	7873
1	1589	7874
1	1605	7875
1	1615	7876
1	1621	7877
1	1616	7878
1	1610	7879
1	1660	7920
1	1630	7921
1	1592	7922
1	1553	7923
1	1508	7924
1	1481	7925
1	1451	7926
1	1437	7927
1	1436	7928
1	1440	7929
1	1454	7930
1	1479	7931
1	1513	7932
1	1553	7933
1	1593	7934
1	1629	7935
1	1652	7936
1	1673	7937
1	1688	7938
1	1694	7939
1	1697	7940
1	1685	7941
1	1660	7942
1	1634	7943
1	1606	7944
1	1576	7945
1	1543	7946
1	1517	7947
1	1502	7948
1	1491	7949
1	1479	7950
1	1478	7951
1	1488	7952
1	1500	7953
1	1517	7954
1	1538	7955
1	1555	7956
1	1572	7957
1	1589	7958
1	1607	7959
1	1629	7960
1	1644	7961
1	1659	7962
1	1662	7963
1	1664	7964
1	1665	7965
1	1671	7966
1	1680	7967
1	1688	7968
1	1704	7969
1	1710	7970
1	1715	7971
1	1725	7972
1	1737	7973
1	1744	7974
1	1749	7975
1	1737	7976
1	1708	7977
1	1664	7978
1	1607	7979
1	1538	7980
1	1477	7981
1	1425	7982
1	1379	7983
1	1351	7984
1	1332	7985
1	1327	7986
1	1340	7987
1	1372	7988
1	1427	7989
1	1493	7990
1	1566	7991
1	1639	7992
1	1706	7993
1	1760	7994
1	1795	7995
1	1821	7996
1	1829	7997
1	1823	7998
1	1814	7999
1	1785	8000
1	1751	8000
1	1715	8002
1	1680	8003
1	1646	8004
1	1618	8005
1	1592	8006
1	1573	8007
1	1559	8008
1	1555	8009
1	1555	8010
1	1571	8011
1	1586	8012
1	1597	8013
1	1610	8013
1	1624	8015
1	1634	8016
1	1645	8016
1	1646	8018
1	1638	8019
1	1697	8040
1	1660	8041
1	1623	8042
1	1585	8043
1	1555	8044
1	1541	8045
1	1528	8045
1	1525	8047
1	1529	8048
1	1539	8048
1	1556	8050
1	1576	8051
1	1584	8052
1	1598	8053
1	1602	8054
1	1593	8055
1	1589	8056
1	1581	8057
1	1574	8058
1	1564	8059
1	1625	8020
1	1612	8021
1	1597	8022
1	1593	8023
1	1602	8024
1	1621	8025
1	1647	8026
1	1676	8027
1	1706	8028
1	1728	8029
1	1755	8029
1	1775	8031
1	1790	8032
1	1801	8032
1	1814	8034
1	1813	8035
1	1803	8036
1	1791	8037
1	1767	8038
1	1738	8039
1	1551	8060
1	1535	8061
1	1518	8061
1	1506	8063
1	1503	8064
1	1513	8064
1	1530	8066
1	1552	8067
1	1574	8068
1	1599	8069
1	1619	8070
1	1643	8071
1	1660	8072
1	1677	8073
1	1694	8074
1	1704	8074
1	1711	8076
1	1712	8077
1	1710	8077
1	1699	8079
1	1678	8080
1	1641	8080
1	1599	8082
1	1557	8083
1	1525	8084
1	1493	8085
1	1477	8086
1	1481	8087
1	1502	8088
1	1533	8089
1	1566	8090
1	1598	8090
1	1631	8092
1	1660	8093
1	1679	8093
1	1688	8095
1	1685	8096
1	1664	8096
1	1634	8098
1	1597	8099
1	1556	8100
1	1529	8101
1	1508	8102
1	1498	8103
1	1495	8104
1	1498	8105
1	1504	8106
1	1526	8106
1	1553	8108
1	1584	8109
1	1625	8109
1	1664	8111
1	1703	8112
1	1731	8113
1	1749	8114
1	1751	8115
1	1747	8116
1	1728	8117
1	1696	8118
1	1657	8119
1	1604	8120
1	1558	8121
1	1525	8122
1	1495	8122
1	1479	8124
1	1472	8125
1	1472	8125
1	1476	8127
1	1487	8128
1	1508	8129
1	1534	8130
1	1558	8131
1	1584	8132
1	1607	8133
1	1626	8134
1	1650	8135
1	1661	8136
1	1675	8137
1	1697	8138
1	1712	8138
1	1729	8140
1	1754	8141
1	1777	8141
1	1814	8143
1	1848	8144
1	1879	8145
1	1922	8146
1	1973	8147
1	2026	8148
1	2089	8149
1	2156	8150
1	2211	8151
1	2266	8152
1	2314	8153
1	2353	8154
1	2386	8154
1	2404	8156
1	2406	8157
1	2394	8157
1	2371	8159
1	2335	8160
1	2303	8161
1	2273	8162
1	2236	8163
1	2205	8164
1	2169	8165
1	2131	8166
1	2100	8167
1	2054	8168
1	2005	8169
1	1948	8170
1	1875	8170
1	1793	8172
1	1708	8173
1	1613	8173
1	1519	8175
1	1437	8176
1	1367	8177
1	1305	8178
1	1263	8179
1	1217	8180
1	1180	8181
1	1152	8182
1	1129	8183
1	1113	8184
1	1110	8185
1	1114	8186
1	1132	8186
1	1162	8188
1	1206	8189
1	1255	8189
1	1310	8191
1	1370	8192
1	1427	8193
1	1484	8194
1	1532	8195
1	1570	8196
1	1594	8197
1	1609	8198
1	1611	8199
1	1607	8200
1	1593	8201
1	1581	8202
1	1572	8203
1	1562	8204
1	1554	8205
1	1553	8206
1	1555	8207
1	1562	8208
1	1574	8209
1	1594	8210
1	1612	8211
1	1651	8212
1	1687	8213
1	1717	8214
1	1739	8215
1	1754	8216
1	1763	8217
1	1765	8218
1	1764	8219
1	1747	8220
1	1728	8221
1	1705	8222
1	1673	8223
1	1638	8224
1	1611	8225
1	1583	8226
1	1559	8227
1	1546	8228
1	1546	8229
1	1556	8230
1	1581	8231
1	1611	8232
1	1651	8233
1	1692	8234
1	1721	8235
1	1751	8236
1	1772	8237
1	1786	8238
1	1786	8239
1	1776	8240
1	1754	8241
1	1726	8242
1	1687	8243
1	1654	8244
1	1626	8245
1	1609	8246
1	1607	8247
1	1607	8248
1	1625	8249
1	1642	8250
1	1667	8251
1	1699	8252
1	1736	8253
1	1764	8254
1	1782	8255
1	1780	8256
1	1764	8257
1	1738	8258
1	1701	8259
1	1661	8260
1	1626	8261
1	1595	8262
1	1572	8263
1	1556	8264
1	1551	8265
1	1557	8266
1	1566	8267
1	1581	8268
1	1597	8269
1	1616	8270
1	1634	8271
1	1652	8272
1	1667	8273
1	1686	8274
1	1699	8275
1	1710	8276
1	1712	8277
1	1716	8278
1	1708	8279
1	1695	8280
1	1677	8281
1	1658	8282
1	1647	8283
1	1657	8284
1	1671	8285
1	1697	8286
1	1731	8287
1	1764	8288
1	1799	8289
1	1838	8290
1	1869	8291
1	1901	8292
1	1922	8293
1	1932	8294
1	1922	8295
1	1908	8296
1	1886	8297
1	1854	8298
1	1809	8299
1	1762	8300
1	1710	8301
1	1661	8302
1	1624	8303
1	1599	8304
1	1585	8305
1	1582	8306
1	1589	8307
1	1602	8308
1	1623	8309
1	1642	8310
1	1667	8311
1	1695	8312
1	1724	8313
1	1753	8314
1	1768	8315
1	1776	8316
1	1778	8317
1	1776	8318
1	1772	8319
1	1770	8320
1	1770	8321
1	1764	8322
1	1762	8323
1	1759	8324
1	1757	8325
1	1760	8326
1	1760	8327
1	1766	8328
1	1777	8329
1	1791	8330
1	1801	8331
1	1817	8332
1	1844	8333
1	1869	8334
1	1893	8335
1	1913	8336
1	1930	8337
1	1940	8338
1	1942	8339
1	1923	8340
1	1903	8341
1	1872	8342
1	1838	8343
1	1801	8344
1	1779	8345
1	1756	8346
1	1739	8347
1	1741	8348
1	1755	8349
1	1781	8350
1	1817	8351
1	1854	8352
1	1895	8353
1	1934	8354
1	1960	8355
1	1980	8356
1	1996	8357
1	2004	8358
1	2021	8359
1	2018	8360
1	2010	8361
1	1991	8362
1	1965	8363
1	1940	8364
1	1920	8365
1	1904	8366
1	1899	8367
1	1904	8368
1	1916	8369
1	1926	8370
1	1948	8371
1	1962	8372
1	1982	8373
1	2012	8374
1	2031	8375
1	2052	8376
1	2066	8377
1	2079	8378
1	2073	8379
1	2053	8380
1	2024	8381
1	1985	8382
1	1949	8383
1	1917	8384
1	1891	8385
1	1872	8386
1	1869	8387
1	1881	8388
1	1917	8389
1	1964	8390
1	2016	8391
1	2077	8392
1	2131	8393
1	2176	8394
1	2206	8395
1	2219	8396
1	2211	8397
1	2183	8398
1	2143	8399
1	2080	8400
1	2018	8401
1	1953	8402
1	1895	8403
1	1849	8404
1	1827	8405
1	1813	8406
1	1818	8407
1	1843	8408
1	1872	8409
1	1908	8410
1	1935	8411
1	1958	8412
1	1978	8413
1	1996	8414
1	1993	8415
1	1988	8416
1	1977	8417
1	1963	8418
1	1948	8419
1	1920	8420
1	1890	8421
1	1854	8422
1	1803	8423
1	1770	8424
1	1731	8425
1	1713	8426
1	1699	8427
1	1692	8428
1	1691	8429
1	1702	8430
1	1720	8431
1	1750	8432
1	1773	8433
1	1796	8434
1	1817	8435
1	1829	8436
1	1833	8437
1	1835	8438
1	1818	8439
1	1785	8440
1	1748	8441
1	1699	8442
1	1649	8443
1	1602	8444
1	1557	8445
1	1529	8446
1	1508	8447
1	1495	8448
1	1491	8449
1	1503	8450
1	1517	8451
1	1535	8452
1	1556	8453
1	1582	8454
1	1605	8455
1	1620	8456
1	1622	8457
1	1608	8458
1	1589	8459
1	1556	8460
1	1529	8461
1	1495	8462
1	1464	8463
1	1440	8464
1	1416	8465
1	1403	8466
1	1409	8467
1	1424	8468
1	1446	8469
1	1472	8470
1	1494	8471
1	1517	8472
1	1530	8473
1	1541	8474
1	1539	8475
1	1533	8476
1	1520	8477
1	1502	8478
1	1490	8479
1	1472	8480
1	1455	8481
1	1448	8482
1	1448	8483
1	1461	8484
1	1478	8485
1	1505	8486
1	1531	8487
1	1559	8488
1	1590	8489
1	1611	8490
1	1634	8491
1	1656	8492
1	1670	8493
1	1686	8494
1	1686	8495
1	1671	8496
1	1647	8497
1	1621	8498
1	1597	8499
1	1574	8500
1	1546	8501
1	1518	8502
1	1489	8503
1	1461	8504
1	1427	8505
1	1404	8506
1	1391	8507
1	1384	8508
1	1398	8509
1	1430	8510
1	1455	8511
1	1487	8512
1	1521	8513
1	1547	8514
1	1561	8515
1	1566	8516
1	1556	8517
1	1546	8518
1	1529	8519
1	1494	8520
1	1463	8521
1	1438	8522
1	1422	8523
1	1408	8524
1	1412	8525
1	1414	8526
1	1436	8527
1	1451	8528
1	1481	8529
1	1507	8530
1	1527	8531
1	1537	8532
1	1541	8533
1	1547	8534
1	1541	8535
1	1530	8536
1	1518	8537
1	1504	8538
1	1490	8539
1	1477	8540
1	1467	8541
1	1464	8542
1	1461	8543
1	1463	8544
1	1472	8545
1	1485	8546
1	1499	8547
1	1508	8548
1	1529	8549
1	1538	8550
1	1553	8551
1	1566	8552
1	1581	8553
1	1592	8554
1	1602	8555
1	1598	8556
1	1593	8557
1	1585	8558
1	1579	8559
1	1573	8560
1	1568	8561
1	1560	8562
1	1555	8563
1	1550	8564
1	1537	8565
1	1530	8566
1	1528	8567
1	1523	8568
1	1529	8569
1	1530	8570
1	1535	8571
1	1543	8572
1	1554	8573
1	1564	8574
1	1570	8575
1	1572	8576
1	1571	8577
1	1571	8578
1	1567	8579
1	1565	8580
1	1556	8581
1	1541	8582
1	1520	8583
1	1502	8584
1	1477	8585
1	1464	8586
1	1458	8587
1	1463	8588
1	1477	8589
1	1498	8590
1	1520	8591
1	1546	8592
1	1569	8593
1	1587	8594
1	1592	8595
1	1591	8596
1	1582	8597
1	1572	8598
1	1559	8599
1	1555	8600
1	1547	8601
1	1535	8602
1	1529	8603
1	1528	8604
1	1525	8605
1	1527	8606
1	1531	8607
1	1541	8608
1	1548	8609
1	1551	8610
1	1553	8611
1	1555	8612
1	1555	8613
1	1555	8614
1	1549	8615
1	1537	8616
1	1521	8617
1	1508	8618
1	1502	8619
1	1566	8640
1	1553	8641
1	1535	8642
1	1515	8643
1	1499	8644
1	1489	8645
1	1476	8646
1	1461	8647
1	1449	8648
1	1441	8649
1	1438	8650
1	1440	8651
1	1454	8652
1	1482	8653
1	1517	8654
1	1541	8655
1	1566	8656
1	1583	8657
1	1593	8658
1	1600	8659
1	1497	8620
1	1503	8621
1	1508	8622
1	1526	8623
1	1548	8624
1	1569	8625
1	1583	8626
1	1595	8627
1	1606	8628
1	1611	8629
1	1617	8630
1	1620	8631
1	1621	8632
1	1626	8633
1	1626	8634
1	1620	8635
1	1613	8636
1	1605	8637
1	1595	8638
1	1584	8639
1	1596	8660
1	1587	8661
1	1579	8662
1	1571	8663
1	1566	8664
1	1566	8665
1	1569	8666
1	1574	8667
1	1584	8668
1	1602	8669
1	1618	8670
1	1641	8671
1	1669	8672
1	1692	8673
1	1714	8674
1	1716	8675
1	1713	8676
1	1699	8677
1	1675	8678
1	1651	8679
1	1629	8680
1	1602	8681
1	1574	8682
1	1548	8683
1	1527	8684
1	1508	8685
1	1502	8686
1	1497	8687
1	1504	8688
1	1530	8689
1	1554	8690
1	1578	8691
1	1607	8692
1	1633	8693
1	1656	8694
1	1670	8695
1	1670	8696
1	1652	8697
1	1615	8698
1	1569	8699
1	1512	8700
1	1464	8701
1	1424	8702
1	1391	8703
1	1368	8704
1	1364	8705
1	1364	8706
1	1381	8707
1	1412	8708
1	1452	8709
1	1500	8710
1	1553	8711
1	1607	8712
1	1656	8713
1	1699	8714
1	1720	8715
1	1738	8716
1	1742	8717
1	1739	8718
1	1728	8719
1	1693	8720
1	1654	8721
1	1608	8722
1	1570	8723
1	1542	8724
1	1512	8725
1	1504	8726
1	1503	8727
1	1505	8728
1	1512	8729
1	1523	8730
1	1533	8731
1	1549	8732
1	1561	8733
1	1574	8734
1	1581	8735
1	1582	8736
1	1581	8737
1	1581	8738
1	1571	8739
1	1557	8740
1	1546	8741
1	1533	8742
1	1526	8743
1	1521	8744
1	1521	8745
1	1530	8746
1	1545	8747
1	1569	8748
1	1593	8749
1	1629	8750
1	1660	8751
1	1695	8752
1	1717	8753
1	1738	8754
1	1742	8755
1	1733	8756
1	1712	8757
1	1679	8758
1	1634	8759
1	1581	8760
1	1533	8761
1	1496	8762
1	1472	8763
1	1458	8764
1	1452	8765
1	1458	8766
1	1476	8767
1	1507	8768
1	1550	8769
1	1594	8770
1	1638	8771
1	1675	8772
1	1711	8773
1	1740	8774
1	1756	8775
1	1769	8776
1	1774	8777
1	1763	8778
1	1744	8779
1	1709	8780
1	1664	8781
1	1618	8782
1	1574	8783
1	1534	8784
1	1510	8785
1	1503	8786
1	1513	8787
1	1530	8788
1	1555	8789
1	1577	8790
1	1604	8791
1	1628	8792
1	1652	8793
1	1686	8794
1	1712	8795
1	1737	8796
1	1744	8797
1	1737	8798
1	1723	8799
1	1707	8800
1	1686	8801
1	1660	8802
1	1623	8803
1	1586	8804
1	1544	8805
1	1508	8806
1	1479	8807
1	1455	8808
1	1449	8809
1	1461	8810
1	1482	8811
1	1510	8812
1	1548	8813
1	1589	8814
1	1625	8815
1	1651	8816
1	1668	8817
1	1675	8818
1	1675	8819
1	1662	8820
1	1649	8821
1	1636	8822
1	1625	8823
1	1608	8824
1	1597	8825
1	1566	8826
1	1543	8827
1	1517	8828
1	1507	8829
1	1505	8830
1	1517	8831
1	1530	8832
1	1546	8833
1	1561	8834
1	1569	8835
1	1578	8836
1	1581	8837
1	1583	8838
1	1581	8839
1	1572	8840
1	1563	8841
1	1557	8842
1	1544	8843
1	1534	8844
1	1526	8845
1	1524	8846
1	1529	8847
1	1542	8848
1	1556	8849
1	1573	8850
1	1596	8851
1	1621	8852
1	1639	8853
1	1661	8854
1	1671	8855
1	1680	8856
1	1682	8857
1	1680	8858
1	1670	8859
1	1657	8860
1	1643	8861
1	1622	8862
1	1603	8863
1	1587	8864
1	1580	8865
1	1583	8866
1	1598	8867
1	1616	8868
1	1642	8869
1	1662	8870
1	1683	8871
1	1695	8872
1	1701	8873
1	1700	8874
1	1695	8875
1	1681	8876
1	1661	8877
1	1634	8878
1	1605	8879
1	1566	8880
1	1535	8881
1	1504	8882
1	1490	8883
1	1488	8884
1	1493	8885
1	1505	8886
1	1529	8887
1	1556	8888
1	1587	8889
1	1626	8890
1	1661	8891
1	1693	8892
1	1717	8893
1	1738	8894
1	1738	8895
1	1716	8896
1	1686	8897
1	1643	8898
1	1605	8899
1	1566	8900
1	1540	8901
1	1518	8902
1	1503	8903
1	1485	8904
1	1476	8905
1	1472	8906
1	1471	8907
1	1476	8908
1	1499	8909
1	1522	8910
1	1553	8911
1	1589	8912
1	1629	8913
1	1674	8914
1	1705	8915
1	1723	8916
1	1724	8917
1	1711	8918
1	1688	8919
1	1652	8920
1	1616	8921
1	1571	8922
1	1530	8923
1	1498	8924
1	1472	8925
1	1459	8926
1	1466	8927
1	1492	8928
1	1544	8929
1	1612	8930
1	1676	8931
1	1733	8932
1	1790	8933
1	1836	8934
1	1864	8935
1	1882	8936
1	1885	8937
1	1872	8938
1	1843	8939
1	1790	8940
1	1739	8941
1	1692	8942
1	1648	8943
1	1611	8944
1	1593	8945
1	1580	8946
1	1580	8947
1	1589	8948
1	1607	8949
1	1634	8950
1	1664	8951
1	1696	8952
1	1723	8953
1	1734	8954
1	1725	8955
1	1711	8956
1	1689	8957
1	1660	8958
1	1630	8959
1	1591	8960
1	1551	8961
1	1510	8962
1	1481	8963
1	1466	8964
1	1463	8965
1	1472	8966
1	1495	8967
1	1535	8968
1	1585	8969
1	1634	8970
1	1686	8971
1	1738	8972
1	1778	8973
1	1818	8974
1	1832	8975
1	1829	8976
1	1803	8977
1	1777	8978
1	1741	8979
1	1705	8980
1	1667	8981
1	1636	8982
1	1609	8983
1	1594	8984
1	1581	8985
1	1575	8986
1	1575	8987
1	1581	8988
1	1594	8989
1	1598	8990
1	1603	8991
1	1607	8992
1	1611	8993
1	1621	8994
1	1628	8995
1	1622	8996
1	1613	8997
1	1600	8998
1	1585	8999
1	1569	9000
1	1555	9001
1	1549	9002
1	1548	9003
1	1550	9004
1	1561	9005
1	1580	9006
1	1604	9007
1	1631	9008
1	1647	9009
1	1662	9010
1	1671	9011
1	1675	9012
1	1677	9013
1	1674	9014
1	1661	9015
1	1652	9016
1	1645	9017
1	1631	9018
1	1611	9019
1	1583	9020
1	1561	9021
1	1533	9022
1	1523	9023
1	1512	9024
1	1510	9025
1	1516	9026
1	1538	9027
1	1569	9028
1	1607	9029
1	1647	9030
1	1684	9031
1	1712	9032
1	1731	9033
1	1738	9034
1	1738	9035
1	1729	9036
1	1712	9037
1	1692	9038
1	1670	9039
1	2332	9080
1	2300	9081
1	2267	9082
1	2236	9083
1	2204	9084
1	2180	9085
1	2157	9086
1	2136	9087
1	2119	9088
1	2104	9089
1	2077	9090
1	2050	9091
1	2014	9092
1	1975	9093
1	1937	9094
1	1887	9095
1	1832	9096
1	1764	9097
1	1695	9098
1	1620	9099
1	1641	9060
1	1612	9061
1	1585	9062
1	1566	9063
1	1546	9064
1	1530	9065
1	1528	9066
1	1534	9067
1	1546	9068
1	1567	9069
1	1582	9070
1	1598	9071
1	1616	9072
1	1633	9073
1	1647	9074
1	1657	9075
1	1660	9076
1	1654	9077
1	1637	9078
1	1618	9079
1	1597	9060
1	1585	9061
1	1584	9062
1	1594	9063
1	1622	9064
1	1655	9065
1	1699	9066
1	1754	9067
1	1823	9068
1	1893	9069
1	1966	9070
1	2047	9071
1	2129	9072
1	2205	9073
1	2276	9074
1	2326	9075
1	2361	9076
1	2378	9077
1	2371	9078
1	2363	9079
1	1543	9100
1	1474	9101
1	1405	9102
1	1332	9103
1	1265	9104
1	1197	9105
1	1140	9106
1	1098	9107
1	1072	9108
1	1068	9109
1	1091	9110
1	1129	9111
1	1179	9112
1	1241	9113
1	1310	9114
1	1377	9115
1	1435	9116
1	1477	9117
1	1517	9118
1	1543	9119
1	1550	9120
1	1554	9121
1	1548	9122
1	1541	9123
1	1531	9124
1	1539	9125
1	1544	9126
1	1554	9127
1	1569	9128
1	1589	9129
1	1608	9130
1	1629	9131
1	1638	9132
1	1652	9133
1	1661	9134
1	1669	9135
1	1674	9136
1	1677	9137
1	1674	9138
1	1667	9139
1	1655	9140
1	1634	9141
1	1618	9142
1	1596	9143
1	1581	9144
1	1571	9145
1	1571	9146
1	1581	9147
1	1597	9148
1	1621	9149
1	1645	9150
1	1670	9151
1	1698	9152
1	1716	9153
1	1744	9154
1	1760	9155
1	1763	9156
1	1754	9157
1	1740	9158
1	1715	9159
1	1684	9160
1	1648	9161
1	1617	9162
1	1591	9163
1	1571	9164
1	1555	9165
1	1555	9166
1	1564	9167
1	1579	9168
1	1606	9169
1	1628	9170
1	1647	9171
1	1660	9172
1	1672	9173
1	1686	9174
1	1697	9175
1	1700	9176
1	1698	9177
1	1695	9178
1	1684	9179
1	1672	9180
1	1656	9181
1	1634	9182
1	1616	9183
1	1607	9184
1	1592	9185
1	1582	9186
1	1580	9187
1	1581	9188
1	1593	9189
1	1609	9190
1	1634	9191
1	1667	9192
1	1708	9193
1	1741	9194
1	1764	9195
1	1782	9196
1	1790	9197
1	1787	9198
1	1779	9199
1	1773	9200
1	1752	9201
1	1729	9202
1	1700	9203
1	1670	9204
1	1644	9205
1	1620	9206
1	1602	9207
1	1594	9208
1	1590	9209
1	1591	9210
1	1607	9211
1	1634	9212
1	1660	9213
1	1697	9214
1	1715	9215
1	1722	9216
1	1720	9217
1	1713	9218
1	1706	9219
1	1690	9220
1	1679	9221
1	1661	9222
1	1652	9223
1	1651	9224
1	1661	9225
1	1683	9226
1	1707	9227
1	1730	9228
1	1752	9229
1	1766	9230
1	1770	9231
1	1773	9232
1	1781	9233
1	1780	9234
1	1774	9235
1	1763	9236
1	1743	9237
1	1727	9238
1	1704	9239
1	1671	9240
1	1642	9241
1	1620	9242
1	1606	9243
1	1603	9244
1	1608	9245
1	1621	9246
1	1636	9247
1	1656	9248
1	1675	9249
1	1700	9250
1	1733	9251
1	1765	9252
1	1801	9253
1	1834	9254
1	1847	9255
1	1861	9256
1	1870	9257
1	1877	9258
1	1881	9259
1	1869	9260
1	1849	9261
1	1826	9262
1	1796	9263
1	1775	9264
1	1762	9265
1	1755	9266
1	1754	9267
1	1754	9268
1	1763	9269
1	1773	9270
1	1803	9271
1	1850	9272
1	1895	9273
1	1943	9274
1	1974	9275
1	1987	9276
1	1986	9277
1	1976	9278
1	1962	9279
1	1946	9280
1	1922	9281
1	1895	9282
1	1872	9283
1	1856	9284
1	1834	9285
1	1819	9286
1	1817	9287
1	1825	9288
1	1852	9289
1	1879	9290
1	1908	9291
1	1940	9292
1	1970	9293
1	1993	9294
1	2012	9295
1	2027	9296
1	2037	9297
1	2037	9298
1	2024	9299
1	1999	9300
1	1973	9301
1	1944	9302
1	1910	9303
1	1884	9304
1	1873	9305
1	1869	9306
1	1874	9307
1	1890	9308
1	1908	9309
1	1931	9310
1	1958	9311
1	1985	9312
1	2011	9313
1	2031	9314
1	2030	9315
1	2029	9316
1	2018	9317
1	2002	9318
1	1989	9319
1	1965	9320
1	1945	9321
1	1922	9322
1	1922	9323
1	1924	9324
1	1926	9325
1	1923	9326
1	1927	9327
1	1934	9328
1	1940	9329
1	1950	9330
1	1970	9331
1	1980	9332
1	1988	9333
1	1993	9334
1	1994	9335
1	1981	9336
1	1971	9337
1	1965	9338
1	1948	9339
1	1725	9360
1	1668	9361
1	1607	9362
1	1546	9363
1	1502	9364
1	1469	9365
1	1454	9366
1	1453	9367
1	1465	9368
1	1485	9369
1	1508	9370
1	1533	9371
1	1555	9372
1	1573	9373
1	1584	9374
1	1590	9375
1	1590	9376
1	1585	9377
1	1580	9378
1	1579	9379
1	1931	9340
1	1917	9341
1	1895	9342
1	1868	9343
1	1842	9344
1	1809	9345
1	1787	9346
1	1772	9347
1	1764	9348
1	1767	9349
1	1770	9350
1	1776	9351
1	1786	9352
1	1793	9353
1	1813	9354
1	1824	9355
1	1831	9356
1	1826	9357
1	1812	9358
1	1775	9359
1	1574	9380
1	1571	9381
1	1567	9382
1	1564	9383
1	1559	9384
1	1549	9385
1	1533	9386
1	1520	9387
1	1503	9388
1	1482	9389
1	1450	9390
1	1416	9391
1	1382	9392
1	1359	9393
1	1346	9394
1	1333	9395
1	1330	9396
1	1328	9397
1	1324	9398
1	1323	9399
1	1332	9400
1	1346	9401
1	1370	9402
1	1398	9403
1	1424	9404
1	1441	9405
1	1461	9406
1	1476	9407
1	1485	9408
1	1494	9409
1	1503	9410
1	1510	9411
1	1515	9412
1	1526	9413
1	1544	9414
1	1563	9415
1	1582	9416
1	1595	9417
1	1595	9418
1	1586	9419
1	1565	9420
1	1544	9421
1	1518	9422
1	1487	9423
1	1449	9424
1	1424	9425
1	1399	9426
1	1393	9427
1	1395	9428
1	1406	9429
1	1428	9430
1	1450	9431
1	1476	9432
1	1508	9433
1	1544	9434
1	1576	9435
1	1600	9436
1	1619	9437
1	1625	9438
1	1623	9439
1	1552	9460
1	1530	9461
1	1503	9462
1	1479	9463
1	1454	9464
1	1431	9465
1	1410	9466
1	1395	9467
1	1379	9468
1	1384	9469
1	1404	9470
1	1432	9471
1	1467	9472
1	1502	9473
1	1538	9474
1	1575	9475
1	1603	9476
1	1622	9477
1	1630	9478
1	1615	9479
1	1611	9440
1	1593	9441
1	1572	9442
1	1544	9443
1	1520	9444
1	1497	9445
1	1482	9446
1	1475	9447
1	1472	9448
1	1476	9449
1	1477	9450
1	1485	9451
1	1494	9452
1	1503	9453
1	1526	9454
1	1544	9455
1	1557	9456
1	1572	9457
1	1576	9458
1	1566	9459
1	1590	9480
1	1558	9481
1	1518	9482
1	1479	9483
1	1449	9484
1	1425	9485
1	1416	9486
1	1413	9487
1	1413	9488
1	1421	9489
1	1428	9490
1	1442	9491
1	1461	9492
1	1484	9493
1	1512	9494
1	1538	9495
1	1560	9496
1	1575	9497
1	1575	9498
1	1567	9499
1	1562	9500
1	1548	9501
1	1531	9502
1	1517	9503
1	1503	9504
1	1490	9505
1	1485	9506
1	1485	9507
1	1490	9508
1	1503	9509
1	1514	9510
1	1539	9511
1	1566	9512
1	1592	9513
1	1616	9514
1	1634	9515
1	1634	9516
1	1626	9517
1	1608	9518
1	1590	9519
1	1557	9520
1	1530	9521
1	1499	9522
1	1474	9523
1	1451	9524
1	1443	9525
1	1439	9526
1	1443	9527
1	1454	9528
1	1475	9529
1	1498	9530
1	1518	9531
1	1535	9532
1	1555	9533
1	1566	9534
1	1580	9535
1	1590	9536
1	1597	9537
1	1603	9538
1	1602	9539
1	1660	9560
1	1631	9561
1	1595	9562
1	1561	9563
1	1530	9564
1	1503	9565
1	1487	9566
1	1476	9567
1	1476	9568
1	1488	9569
1	1497	9570
1	1513	9571
1	1529	9572
1	1549	9573
1	1580	9574
1	1595	9575
1	1607	9576
1	1610	9577
1	1611	9578
1	1609	9579
1	1593	9540
1	1577	9541
1	1544	9542
1	1504	9543
1	1474	9544
1	1437	9545
1	1413	9546
1	1404	9547
1	1415	9548
1	1436	9549
1	1464	9550
1	1497	9551
1	1539	9552
1	1585	9553
1	1631	9554
1	1660	9555
1	1683	9556
1	1696	9557
1	1694	9558
1	1686	9559
1	1600	9580
1	1584	9581
1	1569	9582
1	1551	9583
1	1539	9584
1	1529	9585
1	1525	9586
1	1529	9587
1	1539	9588
1	1554	9589
1	1562	9590
1	1572	9591
1	1581	9592
1	1583	9593
1	1589	9594
1	1592	9595
1	1595	9596
1	1595	9597
1	1592	9598
1	1587	9599
1	1577	9600
1	1568	9601
1	1553	9602
1	1529	9603
1	1507	9604
1	1489	9605
1	1472	9606
1	1456	9607
1	1449	9608
1	1447	9609
1	1450	9610
1	1459	9611
1	1476	9612
1	1499	9613
1	1524	9614
1	1544	9615
1	1564	9616
1	1581	9617
1	1585	9618
1	1590	9619
1	1580	9620
1	1573	9621
1	1562	9622
1	1567	9623
1	1567	9624
1	1567	9625
1	1559	9626
1	1553	9627
1	1549	9628
1	1551	9629
1	1561	9630
1	1579	9631
1	1588	9632
1	1594	9633
1	1605	9634
1	1611	9635
1	1619	9636
1	1620	9637
1	1622	9638
1	1616	9639
1	1609	9640
1	1605	9641
1	1593	9642
1	1581	9643
1	1566	9644
1	1554	9645
1	1542	9646
1	1530	9647
1	1515	9648
1	1507	9649
1	1505	9650
1	1510	9651
1	1524	9652
1	1542	9653
1	1557	9654
1	1568	9655
1	1576	9656
1	1581	9657
1	1580	9658
1	1577	9659
1	1561	9660
1	1548	9661
1	1530	9662
1	1513	9663
1	1503	9664
1	1490	9665
1	1482	9666
1	1485	9667
1	1489	9668
1	1490	9669
1	1492	9670
1	1494	9671
1	1498	9672
1	1503	9673
1	1511	9674
1	1521	9675
1	1535	9676
1	1556	9677
1	1581	9678
1	1602	9679
1	1608	9680
1	1608	9681
1	1599	9682
1	1582	9683
1	1566	9684
1	1555	9685
1	1549	9686
1	1547	9687
1	1552	9688
1	1554	9689
1	1556	9690
1	1557	9691
1	1559	9692
1	1562	9693
1	1574	9694
1	1584	9695
1	1593	9696
1	1605	9697
1	1611	9698
1	1607	9699
1	1608	9700
1	1607	9701
1	1599	9702
1	1594	9703
1	1587	9704
1	1579	9705
1	1576	9706
1	1578	9707
1	1581	9708
1	1594	9709
1	1603	9710
1	1613	9711
1	1623	9712
1	1628	9713
1	1629	9714
1	1626	9715
1	1628	9716
1	1629	9717
1	1629	9718
1	1625	9719
1	1615	9720
1	1607	9721
1	1594	9722
1	1579	9723
1	1554	9724
1	1535	9725
1	1525	9726
1	1517	9727
1	1536	9728
1	1557	9729
1	1587	9730
1	1612	9731
1	1635	9732
1	1658	9733
1	1678	9734
1	1686	9735
1	1688	9736
1	1685	9737
1	1672	9738
1	1652	9739
1	1626	9740
1	1595	9741
1	1569	9742
1	1538	9743
1	1511	9744
1	1490	9745
1	1476	9746
1	1473	9747
1	1472	9748
1	1476	9749
1	1476	9750
1	1482	9751
1	1498	9752
1	1518	9753
1	1555	9754
1	1590	9755
1	1620	9756
1	1644	9757
1	1657	9758
1	1661	9759
1	1660	9760
1	1652	9761
1	1639	9762
1	1628	9763
1	1613	9764
1	1596	9765
1	1584	9766
1	1581	9767
1	1581	9768
1	1590	9769
1	1585	9770
1	1582	9771
1	1580	9772
1	1580	9773
1	1581	9774
1	1581	9775
1	1581	9776
1	1581	9777
1	1576	9778
1	1566	9779
1	1551	9780
1	1539	9781
1	1529	9782
1	1519	9783
1	1520	9784
1	1524	9785
1	1526	9786
1	1531	9787
1	1541	9788
1	1557	9789
1	1584	9790
1	1613	9791
1	1644	9792
1	1669	9793
1	1693	9794
1	1708	9795
1	1724	9796
1	1739	9797
1	1747	9798
1	1751	9799
1	1735	9800
1	1708	9801
1	1679	9802
1	1647	9803
1	1620	9804
1	1596	9805
1	1585	9806
1	1592	9807
1	1605	9808
1	1624	9809
1	1635	9810
1	1654	9811
1	1670	9812
1	1686	9813
1	1708	9814
1	1720	9815
1	1727	9816
1	1723	9817
1	1708	9818
1	1679	9819
1	1638	9820
1	1599	9821
1	1557	9822
1	1530	9823
1	1504	9824
1	1488	9825
1	1474	9826
1	1466	9827
1	1463	9828
1	1473	9829
1	1494	9830
1	1521	9831
1	1556	9832
1	1605	9833
1	1643	9834
1	1681	9835
1	1710	9836
1	1729	9837
1	1737	9838
1	1729	9839
1	1708	9840
1	1682	9841
1	1652	9842
1	1611	9843
1	1578	9844
1	1538	9845
1	1507	9846
1	1485	9847
1	1475	9848
1	1477	9849
1	1503	9850
1	1539	9851
1	1580	9852
1	1626	9853
1	1670	9854
1	1703	9855
1	1729	9856
1	1750	9857
1	1760	9858
1	1764	9859
1	1751	9860
1	1729	9861
1	1701	9862
1	1678	9863
1	1652	9864
1	1634	9865
1	1624	9866
1	1616	9867
1	1613	9868
1	1620	9869
1	1628	9870
1	1639	9871
1	1660	9872
1	1682	9873
1	1705	9874
1	1721	9875
1	1735	9876
1	1737	9877
1	1727	9878
1	1701	9879
1	1680	9880
1	1647	9881
1	1614	9882
1	1581	9883
1	1555	9884
1	1539	9885
1	1531	9886
1	1533	9887
1	1541	9888
1	1557	9889
1	1579	9890
1	1598	9891
1	1620	9892
1	1639	9893
1	1660	9894
1	1676	9895
1	1685	9896
1	1686	9897
1	1683	9898
1	1673	9899
1	1652	9900
1	1634	9901
1	1617	9902
1	1599	9903
1	1593	9904
1	1584	9905
1	1584	9906
1	1590	9907
1	1600	9908
1	1611	9909
1	1634	9910
1	1660	9911
1	1691	9912
1	1725	9913
1	1757	9914
1	1773	9915
1	1790	9916
1	1796	9917
1	1799	9918
1	1791	9919
1	1764	9940
1	1734	9941
1	1708	9942
1	1675	9943
1	1642	9944
1	1620	9945
1	1597	9946
1	1584	9947
1	1577	9948
1	1575	9949
1	1582	9950
1	1599	9951
1	1623	9952
1	1643	9953
1	1660	9954
1	1674	9955
1	1685	9956
1	1690	9957
1	1692	9958
1	1680	9959
1	1660	9940
1	1635	9941
1	1609	9942
1	1587	9943
1	1567	9944
1	1543	9945
1	1536	9946
1	1537	9947
1	1546	9948
1	1579	9949
1	1610	9950
1	1649	9951
1	1691	9952
1	1737	9953
1	1785	9954
1	1839	9955
1	1878	9956
1	1906	9957
1	1919	9958
1	1919	9959
1	1897	9960
1	1868	9961
1	1827	9962
1	1775	9963
1	1734	9964
1	1692	9965
1	1661	9966
1	1642	9967
1	1633	9968
1	1634	9969
1	1645	9970
1	1656	9971
1	1660	9972
1	1663	9973
1	1665	9974
1	1660	9975
1	1651	9976
1	1640	9977
1	1626	9978
1	1616	9979
1	1599	9980
1	1584	9981
1	1577	9982
1	1580	9983
1	1581	9984
1	1591	9985
1	1603	9986
1	1616	9987
1	1629	9988
1	1646	9989
1	1657	9990
1	1677	9991
1	1704	9992
1	1733	9993
1	1751	9994
1	1774	9995
1	1791	9996
1	1794	9997
1	1791	9998
1	1788	9999
1	1769	10000
1	1748	10001
1	1716	10002
1	1686	10003
1	1648	10004
1	1606	10005
1	1566	10006
1	1537	10007
1	1517	10008
1	1517	10009
1	1521	10010
1	1541	10011
1	1565	10012
1	1594	10013
1	1625	10014
1	1656	10015
1	1676	10016
1	1690	10017
1	1695	10018
1	1697	10019
1	1669	10040
1	1644	10041
1	1620	10042
1	1597	10043
1	1580	10044
1	1568	10045
1	1566	10046
1	1566	10047
1	1577	10048
1	1594	10049
1	1610	10050
1	1634	10051
1	1660	10052
1	1685	10053
1	1699	10054
1	1711	10055
1	1717	10056
1	1712	10057
1	1701	10058
1	1683	10059
1	1685	10020
1	1665	10021
1	1644	10022
1	1612	10023
1	1581	10024
1	1560	10025
1	1544	10026
1	1544	10027
1	1553	10028
1	1570	10029
1	1601	10030
1	1633	10031
1	1661	10032
1	1692	10033
1	1716	10034
1	1728	10035
1	1737	10036
1	1731	10037
1	1712	10038
1	1687	10039
1	1656	10060
1	1625	10061
1	1592	10062
1	1557	10063
1	1533	10064
1	1520	10065
1	1520	10066
1	1529	10067
1	1551	10068
1	1594	10069
1	1639	10070
1	1693	10071
1	1747	10072
1	1798	10073
1	1855	10074
1	1901	10075
1	1946	10076
1	1996	10077
1	2053	10078
1	2109	10079
1	2156	10080
1	2197	10081
1	2237	10082
1	2268	10083
1	2302	10084
1	2326	10085
1	2350	10086
1	2378	10087
1	2401	10088
1	2426	10089
1	2453	10090
1	2476	10091
1	2492	10092
1	2495	10093
1	2487	10094
1	2461	10095
1	2432	10096
1	2394	10097
1	2358	10098
