#Date:= 2024-10-01T15:03:07.903027
#Sampling Rate(Hz):= 1000
#Labels:= LOD	ECG	TS
1	849	20
1	896	21
1	945	22
1	1002	23
1	1057	24
1	1098	25
1	1125	26
1	1137	27
1	1140	28
1	1132	29
1	1113	30
1	1092	31
1	1071	32
1	1054	33
1	1041	34
1	1044	35
1	1058	36
1	1086	37
1	2150	38
1	2156	39
1	2150	40
1	2137	41
1	2112	42
1	2074	43
1	2028	44
1	1991	45
1	1957	46
1	1931	47
1	1906	48
1	1896	49
1	1893	50
1	1895	51
1	1899	52
1	1906	53
1	1922	54
1	1952	55
1	1986	56
1	2011	57
1	2021	58
1	2026	59
1	2032	60
1	2044	61
1	2058	62
1	2077	63
1	2105	64
1	2130	65
1	2153	66
1	2168	67
1	2179	68
1	2174	69
1	2156	70
1	2130	71
1	2093	72
1	2054	73
1	2019	74
1	1992	75
1	1973	76
1	1964	77
1	1966	78
1	1979	79
1	2010	80
1	2050	81
1	2092	82
1	2129	83
1	2157	84
1	2170	85
1	2175	86
1	2179	87
1	2183	88
1	2183	89
1	2184	90
1	2183	91
1	2182	92
1	2170	93
1	2170	94
1	2170	95
1	2173	96
1	2181	97
1	2183	98
1	2182	99
1	2179	100
1	2171	101
1	2166	102
1	2161	103
1	2153	104
1	2133	105
1	2107	106
1	2079	107
1	2052	108
1	2030	109
1	2012	110
1	1988	111
1	1965	112
1	1948	113
1	1935	114
1	1935	115
1	1948	116
1	1971	117
1	1994	118
1	2019	119
1	2052	120
1	2079	121
1	2106	122
1	2120	123
1	2136	124
1	2148	125
1	2157	126
1	2162	127
1	2161	128
1	2163	129
1	2166	130
1	2170	131
1	2176	132
1	2182	133
1	2180	134
1	2170	135
1	2152	136
1	2129	137
1	2091	138
1	2066	139
1	2048	140
1	2043	141
1	2045	142
1	2054	143
1	2054	144
1	2075	145
1	2111	146
1	2157	147
1	2207	148
1	2253	149
1	2292	150
1	2322	151
1	2345	152
1	2361	153
1	2359	154
1	2354	155
1	2354	156
1	2354	157
1	2359	158
1	2367	159
1	2371	160
1	2393	161
1	2408	162
1	2419	163
1	2422	164
1	2412	165
1	2391	166
1	2358	167
1	2312	168
1	2271	169
1	2235	170
1	2201	171
1	2185	172
1	2174	173
1	2171	174
1	2168	175
1	2170	176
1	2176	177
1	2188	178
1	2203	179
1	2209	180
1	2194	181
1	2173	182
1	2147	183
1	2130	184
1	2116	185
1	2105	186
1	2104	187
1	2105	188
1	2117	189
1	2135	190
1	2158	191
1	2183	192
1	2214	193
1	2249	194
1	2275	195
1	2298	196
1	2328	197
1	2349	198
1	2367	199
1	2380	200
1	2390	201
1	2403	202
1	2399	203
1	2374	204
1	2332	205
1	2286	206
1	2246	207
1	2209	208
1	2170	209
1	2140	210
1	2129	211
1	2133	212
1	2131	213
1	2133	214
1	2131	215
1	2124	216
1	2097	217
1	2053	218
1	2006	219
1	2047	240
1	2004	241
1	1972	242
1	1943	243
1	1907	244
1	1863	245
1	1826	246
1	1794	247
1	1787	248
1	1791	249
1	1799	250
1	1823	251
1	1856	252
1	1908	253
1	1966	254
1	2022	255
1	2077	256
1	2136	257
1	2191	258
1	2244	259
1	1956	220
1	1922	221
1	1896	222
1	1886	223
1	1880	224
1	1872	225
1	1875	226
1	1895	227
1	1919	228
1	1949	229
1	1985	230
1	2019	231
1	2052	232
1	2079	233
1	2106	234
1	2126	235
1	2136	236
1	2138	237
1	2122	238
1	2079	239
1	2288	260
1	2335	261
1	2368	262
1	2400	263
1	2412	264
1	2406	265
1	2381	266
1	2340	267
1	2279	268
1	2207	269
1	2145	270
1	2093	271
1	2051	272
1	2000	273
1	1965	274
1	1937	275
1	1922	276
1	1926	277
1	1939	278
1	1958	279
1	1985	280
1	2024	281
1	2066	282
1	2119	283
1	2170	284
1	2212	285
1	2256	286
1	2291	287
1	2322	288
1	2352	289
1	2381	290
1	2398	291
1	2393	292
1	2367	293
1	2341	294
1	2314	295
1	2288	296
1	2266	297
1	2245	298
1	2210	299
1	2166	300
1	2122	301
1	2081	302
1	2043	303
1	2019	304
1	2007	305
1	2002	306
1	2013	307
1	2034	308
1	2073	309
1	2125	310
1	2179	311
1	2236	312
1	2281	313
1	2319	314
1	2351	315
1	2371	316
1	2393	317
1	2419	318
1	2471	319
1	2533	320
1	2608	321
1	2691	322
1	2752	323
1	2786	324
1	2798	325
1	2786	326
1	2753	327
1	2704	328
1	2647	329
1	2577	330
1	2506	331
1	2433	332
1	2363	333
1	2309	334
1	2269	335
1	2237	336
1	2214	337
1	2185	338
1	2135	339
1	2102	340
1	2052	341
1	1989	342
1	1935	343
1	1899	344
1	1887	345
1	1895	346
1	1916	347
1	1947	348
1	1982	349
1	2016	350
1	2045	351
1	2052	352
1	2042	353
1	2024	354
1	2004	355
1	2000	356
1	1999	357
1	2006	358
1	2029	359
1	2074	360
1	2132	361
1	2191	362
1	2242	363
1	2288	364
1	2332	365
1	2381	366
1	2432	367
1	2481	368
1	2520	369
1	2560	370
1	2584	371
1	2595	372
1	2593	373
1	2584	374
1	2570	375
1	2548	376
1	2528	377
1	2509	378
1	2492	379
1	2448	380
1	2391	381
1	2326	382
1	2260	383
1	2204	384
1	2165	385
1	2135	386
1	2120	387
1	2116	388
1	2131	389
1	2170	390
1	2231	391
1	2293	392
1	2357	393
1	2432	394
1	2497	395
1	2535	396
1	2552	397
1	2537	398
1	2520	399
1	2496	400
1	2458	401
1	2419	402
1	2391	403
1	2362	404
1	2327	405
1	2278	406
1	2218	407
1	2158	408
1	2114	409
1	2081	410
1	2066	411
1	2067	412
1	2082	413
1	2115	414
1	2159	415
1	2210	416
1	2271	417
1	2327	418
1	2386	419
1	2441	420
1	2487	421
1	2516	422
1	2535	423
1	2558	424
1	2566	425
1	2559	426
1	2549	427
1	2525	428
1	2509	429
1	2503	430
1	2509	431
1	2524	432
1	2551	433
1	2574	434
1	2600	435
1	2624	436
1	2648	437
1	2666	438
1	2679	439
1	2683	440
1	2671	441
1	2644	442
1	2623	443
1	2600	444
1	2605	445
1	2603	446
1	2607	447
1	2600	448
1	2585	449
1	2579	450
1	2563	451
1	2560	452
1	2559	453
1	2564	454
1	2566	455
1	2563	456
1	2555	457
1	2539	458
1	2524	459
1	2520	460
1	2524	461
1	2528	462
1	2546	463
1	2560	464
1	2575	465
1	2581	466
1	2597	467
1	2605	468
1	2620	469
1	2633	470
1	2644	471
1	2654	472
1	2655	473
1	2654	474
1	2646	475
1	2624	476
1	2593	477
1	2558	478
1	2523	479
1	2502	480
1	2488	481
1	2487	482
1	2492	483
1	2505	484
1	2515	485
1	2524	486
1	2532	487
1	2533	488
1	2534	489
1	2532	490
1	2526	491
1	2524	492
1	2521	493
1	2522	494
1	2532	495
1	2551	496
1	2581	497
1	2607	498
1	2638	499
1	2658	500
1	2678	501
1	2704	502
1	2725	503
1	2753	504
1	2777	505
1	2794	506
1	2813	507
1	2836	508
1	2843	509
1	2821	510
1	2781	511
1	2729	512
1	2673	513
1	2628	514
1	2593	515
1	2571	516
1	2561	517
1	2558	518
1	2563	519
1	2574	520
1	2593	521
1	2623	522
1	2654	523
1	2685	524
1	2712	525
1	2741	526
1	2764	527
1	2781	528
1	2791	529
1	2789	530
1	2782	531
1	2767	532
1	2734	533
1	2683	534
1	2622	535
1	2557	536
1	2503	537
1	2445	538
1	2384	539
1	2359	540
1	2341	541
1	2339	542
1	2350	543
1	2376	544
1	2410	545
1	2462	546
1	2515	547
1	2577	548
1	2641	549
1	2690	550
1	2734	551
1	2764	552
1	2782	553
1	2801	554
1	2808	555
1	2799	556
1	2782	557
1	2758	558
1	2730	559
1	2707	560
1	2696	561
1	2685	562
1	2676	563
1	2660	564
1	2644	565
1	2627	566
1	2608	567
1	2593	568
1	2581	569
1	2576	570
1	2573	571
1	2583	572
1	2605	573
1	2644	574
1	2687	575
1	2737	576
1	2790	577
1	2839	578
1	2881	579
1	2458	600
1	2523	601
1	2602	602
1	2681	603
1	2760	604
1	2841	605
1	2914	606
1	2970	607
1	3003	608
1	3004	609
1	2992	610
1	2961	611
1	2914	612
1	2852	613
1	2788	614
1	2722	615
1	2658	616
1	2602	617
1	2547	618
1	2506	619
1	2904	580
1	2915	581
1	2912	582
1	2906	583
1	2902	584
1	2894	585
1	2876	586
1	2841	587
1	2785	588
1	2718	589
1	2662	590
1	2619	591
1	2575	592
1	2525	593
1	2478	594
1	2420	595
1	2381	596
1	2365	597
1	2375	598
1	2407	599
1	2471	620
1	2440	621
1	2432	622
1	2436	623
1	2448	624
1	2466	625
1	2485	626
1	2504	627
1	2525	628
1	2557	629
1	2587	630
1	2624	631
1	2655	632
1	2673	633
1	2694	634
1	2707	635
1	2710	636
1	2712	637
1	2704	638
1	2687	639
1	2676	640
1	2664	641
1	2637	642
1	2621	643
1	2601	644
1	2588	645
1	2577	646
1	2569	647
1	2568	648
1	2570	649
1	2566	650
1	2558	651
1	2540	652
1	2519	653
1	2503	654
1	2492	655
1	2488	656
1	2485	657
1	2476	658
1	2474	659
1	2476	660
1	2487	661
1	2503	662
1	2512	663
1	2516	664
1	2519	665
1	2521	666
1	2529	667
1	2531	668
1	2535	669
1	2546	670
1	2558	671
1	2581	672
1	2617	673
1	2661	674
1	2713	675
1	2773	676
1	2853	677
1	2933	678
1	3001	679
1	3038	680
1	3045	681
1	3047	682
1	3052	683
1	3059	684
1	3050	685
1	3024	686
1	2974	687
1	2901	688
1	2822	689
1	2741	690
1	2661	691
1	2581	692
1	2512	693
1	2447	694
1	2393	695
1	2346	696
1	2316	697
1	2284	698
1	2250	699
1	2222	700
1	2202	701
1	2186	702
1	2178	703
1	2174	704
1	2186	705
1	2214	706
1	2262	707
1	2309	708
1	2367	709
1	2424	710
1	2477	711
1	2520	712
1	2551	713
1	2573	714
1	2590	715
1	2605	716
1	2630	717
1	2657	718
1	2693	719
1	2726	720
1	2757	721
1	2778	722
1	2782	723
1	2783	724
1	2781	725
1	2772	726
1	2762	727
1	2747	728
1	2730	729
1	2709	730
1	2692	731
1	2678	732
1	2677	733
1	2692	734
1	2716	735
1	2737	736
1	2754	737
1	2757	738
1	2753	739
1	2747	740
1	2735	741
1	2714	742
1	2686	743
1	2654	744
1	2633	745
1	2605	746
1	2581	747
1	2568	748
1	2561	749
1	2561	750
1	2566	751
1	2569	752
1	2571	753
1	2563	754
1	2556	755
1	2545	756
1	2535	757
1	2535	758
1	2527	759
1	2521	780
1	2501	781
1	2484	782
1	2463	783
1	2470	784
1	2488	785
1	2514	786
1	2558	787
1	2600	788
1	2641	789
1	2664	790
1	2673	791
1	2664	792
1	2652	793
1	2631	794
1	2593	795
1	2551	796
1	2513	797
1	2477	798
1	2457	799
1	2520	760
1	2514	761
1	2496	762
1	2477	763
1	2449	764
1	2421	765
1	2386	766
1	2346	767
1	2309	768
1	2288	769
1	2291	770
1	2314	771
1	2358	772
1	2402	773
1	2448	774
1	2495	775
1	2527	776
1	2551	777
1	2557	778
1	2542	779
1	2449	800
1	2453	801
1	2467	802
1	2476	803
1	2487	804
1	2495	805
1	2503	806
1	2515	807
1	2526	808
1	2549	809
1	2572	810
1	2601	811
1	2635	812
1	2662	813
1	2694	814
1	2712	815
1	2719	816
1	2713	817
1	2685	818
1	2651	819
1	2287	840
1	2304	841
1	2332	842
1	2362	843
1	2391	844
1	2418	845
1	2435	846
1	2457	847
1	2468	848
1	2461	849
1	2444	850
1	2422	851
1	2395	852
1	2377	853
1	2361	854
1	2341	855
1	2328	856
1	2323	857
1	2319	858
1	2325	859
1	2608	820
1	2558	821
1	2508	822
1	2449	823
1	2399	824
1	2367	825
1	2343	826
1	2340	827
1	2338	828
1	2353	829
1	2365	830
1	2369	831
1	2372	832
1	2359	833
1	2337	834
1	2318	835
1	2304	836
1	2296	837
1	2288	838
1	2287	839
1	2332	860
1	2338	861
1	2353	862
1	2364	863
1	2372	864
1	2380	865
1	2384	866
1	2391	867
1	2407	868
1	2436	869
1	2476	870
1	2519	871
1	2565	872
1	2605	873
1	2646	874
1	2679	875
1	2698	876
1	2706	877
1	2687	878
1	2655	879
1	2620	880
1	2576	881
1	2533	882
1	2493	883
1	2443	884
1	2392	885
1	2358	886
1	2342	887
1	2336	888
1	2341	889
1	2352	890
1	2359	891
1	2380	892
1	2393	893
1	2404	894
1	2419	895
1	2422	896
1	2427	897
1	2432	898
1	2445	899
1	2458	900
1	2467	901
1	2467	902
1	2450	903
1	2440	904
1	2422	905
1	2410	906
1	2408	907
1	2403	908
1	2406	909
1	2419	910
1	2421	911
1	2419	912
1	2409	913
1	2393	914
1	2372	915
1	2352	916
1	2328	917
1	2309	918
1	2307	919
1	2324	920
1	2354	921
1	2401	922
1	2443	923
1	2482	924
1	2506	925
1	2526	926
1	2555	927
1	2581	928
1	2595	929
1	2584	930
1	2548	931
1	2496	932
1	2411	933
1	2325	934
1	2258	935
1	2206	936
1	2183	937
1	2166	938
1	2157	939
1	2159	940
1	2188	941
1	2210	942
1	2254	943
1	2292	944
1	2327	945
1	2340	946
1	2348	947
1	2369	948
1	2398	949
1	2432	950
1	2463	951
1	2493	952
1	2506	953
1	2509	954
1	2506	955
1	2503	956
1	2496	957
1	2485	958
1	2472	959
1	2455	960
1	2443	961
1	2434	962
1	2431	963
1	2443	964
1	2468	965
1	2505	966
1	2558	967
1	2605	968
1	2659	969
1	2706	970
1	2737	971
1	2758	972
1	2773	973
1	2781	974
1	2791	975
1	2808	976
1	2820	977
1	2828	978
1	2850	979
1	2861	980
1	2868	981
1	2865	982
1	2850	983
1	2822	984
1	2785	985
1	2738	986
1	2683	987
1	2617	988
1	2545	989
1	2482	990
1	2405	991
1	2332	992
1	2256	993
1	2191	994
1	2142	995
1	2097	996
1	2066	997
1	2034	998
1	2006	999
1	1990	1000
1	1987	1001
1	1987	1002
1	1991	1003
1	2000	1004
1	2012	1005
1	2028	1006
1	2055	1007
1	2088	1008
1	2127	1009
1	2170	1010
1	2210	1011
1	2257	1012
1	2287	1013
1	2314	1014
1	2330	1015
1	2342	1016
1	2363	1017
1	2384	1018
1	2405	1019
1	2428	1020
1	2445	1021
1	2449	1022
1	2436	1023
1	2422	1024
1	2408	1025
1	2393	1026
1	2380	1027
1	2352	1028
1	2319	1029
1	2296	1030
1	2282	1031
1	2276	1032
1	2272	1033
1	2269	1034
1	2255	1035
1	2228	1036
1	2192	1037
1	2152	1038
1	2124	1039
1	2117	1040
1	2122	1041
1	2140	1042
1	2181	1043
1	2215	1044
1	2270	1045
1	2308	1046
1	2331	1047
1	2352	1048
1	2367	1049
1	2382	1050
1	2393	1051
1	2401	1052
1	2410	1053
1	2419	1054
1	2424	1055
1	2426	1056
1	2426	1057
1	2419	1058
1	2393	1059
1	2355	1060
1	2332	1061
1	2312	1062
1	2294	1063
1	2290	1064
1	2292	1065
1	2305	1066
1	2315	1067
1	2326	1068
1	2341	1069
1	2356	1070
1	2371	1071
1	2397	1072
1	2415	1073
1	2428	1074
1	2435	1075
1	2433	1076
1	2425	1077
1	2413	1078
1	2405	1079
1	2400	1080
1	2401	1081
1	2405	1082
1	2401	1083
1	2405	1084
1	2410	1085
1	2410	1086
1	2418	1087
1	2408	1088
1	2393	1089
1	2369	1090
1	2342	1091
1	2314	1092
1	2288	1093
1	2259	1094
1	2222	1095
1	2196	1096
1	2185	1097
1	2184	1098
1	2196	1099
1	2205	1100
1	2210	1101
1	2233	1102
1	2236	1103
1	2246	1104
1	2262	1105
1	2275	1106
1	2280	1107
1	2284	1108
1	2287	1109
1	2291	1110
1	2291	1111
1	2278	1112
1	2253	1113
1	2236	1114
1	2210	1115
1	2196	1116
1	2198	1117
1	2202	1118
1	2212	1119
1	2232	1120
1	2250	1121
1	2273	1122
1	2297	1123
1	2318	1124
1	2334	1125
1	2348	1126
1	2368	1127
1	2382	1128
1	2393	1129
1	2395	1130
1	2393	1131
1	2399	1132
1	2401	1133
1	2395	1134
1	2384	1135
1	2366	1136
1	2341	1137
1	2314	1138
1	2290	1139
1	2261	1140
1	2245	1141
1	2240	1142
1	2245	1143
1	2248	1144
1	2253	1145
1	2267	1146
1	2283	1147
1	2307	1148
1	2327	1149
1	2336	1150
1	2345	1151
1	2349	1152
1	2350	1153
1	2354	1154
1	2363	1155
1	2368	1156
1	2376	1157
1	2376	1158
1	2379	1159
1	2380	1160
1	2368	1161
1	2358	1162
1	2329	1163
1	2302	1164
1	2274	1165
1	2246	1166
1	2222	1167
1	2201	1168
1	2183	1169
1	2167	1170
1	2170	1171
1	2185	1172
1	2196	1173
1	2199	1174
1	2196	1175
1	2188	1176
1	2192	1177
1	2194	1178
1	2192	1179
1	2198	1180
1	2210	1181
1	2222	1182
1	2244	1183
1	2260	1184
1	2284	1185
1	2303	1186
1	2318	1187
1	2315	1188
1	2314	1189
1	2305	1190
1	2290	1191
1	2282	1192
1	2264	1193
1	2247	1194
1	2233	1195
1	2222	1196
1	2220	1197
1	2222	1198
1	2221	1199
1	2220	1200
1	2219	1201
1	2214	1202
1	2206	1203
1	2206	1204
1	2206	1205
1	2202	1206
1	2202	1207
1	2192	1208
1	2173	1209
1	2152	1210
1	2131	1211
1	2119	1212
1	2117	1213
1	2131	1214
1	2157	1215
1	2191	1216
1	2228	1217
1	2251	1218
1	2279	1219
1	2298	1220
1	2310	1221
1	2317	1222
1	2318	1223
1	2315	1224
1	2314	1225
1	2306	1226
1	2294	1227
1	2286	1228
1	2274	1229
1	2265	1230
1	2262	1231
1	2262	1232
1	2257	1233
1	2258	1234
1	2258	1235
1	2251	1236
1	2246	1237
1	2233	1238
1	2218	1239
1	2197	1240
1	2192	1241
1	2179	1242
1	2170	1243
1	2166	1244
1	2158	1245
1	2153	1246
1	2143	1247
1	2136	1248
1	2127	1249
1	2110	1250
1	2097	1251
1	2081	1252
1	2075	1253
1	2070	1254
1	2070	1255
1	2071	1256
1	2066	1257
1	2055	1258
1	2039	1259
1	2013	1260
1	1986	1261
1	1962	1262
1	1927	1263
1	1909	1264
1	1896	1265
1	1887	1266
1	1877	1267
1	1863	1268
1	1853	1269
1	1839	1270
1	1821	1271
1	1800	1272
1	1795	1273
1	1801	1274
1	1819	1275
1	1843	1276
1	1863	1277
1	1881	1278
1	1897	1279
1	1907	1280
1	1909	1281
1	1908	1282
1	1899	1283
1	1891	1284
1	1888	1285
1	1890	1286
1	1898	1287
1	1908	1288
1	1918	1289
1	1925	1290
1	1939	1291
1	1962	1292
1	1986	1293
1	2014	1294
1	2034	1295
1	2050	1296
1	2052	1297
1	2047	1298
1	2032	1299
1	2017	1300
1	2005	1301
1	1992	1302
1	1979	1303
1	1974	1304
1	1971	1305
1	1973	1306
1	1973	1307
1	1963	1308
1	1955	1309
1	1938	1310
1	1914	1311
1	1895	1312
1	1869	1313
1	1849	1314
1	1835	1315
1	1821	1316
1	1816	1317
1	1809	1318
1	1799	1319
1	1791	1320
1	1781	1321
1	1777	1322
1	1766	1323
1	1772	1324
1	1782	1325
1	1796	1326
1	1816	1327
1	1824	1328
1	1832	1329
1	1842	1330
1	1850	1331
1	1856	1332
1	1857	1333
1	1847	1334
1	1836	1335
1	1820	1336
1	1813	1337
1	1809	1338
1	1818	1339
1	1831	1340
1	1843	1341
1	1849	1342
1	1858	1343
1	1849	1344
1	1847	1345
1	1841	1346
1	1824	1347
1	1817	1348
1	1809	1349
1	1800	1350
1	1791	1351
1	1782	1352
1	1778	1353
1	1775	1354
1	1774	1355
1	1778	1356
1	1783	1357
1	1793	1358
1	1803	1359
1	1812	1360
1	1831	1361
1	1849	1362
1	1870	1363
1	1891	1364
1	1911	1365
1	1927	1366
1	1945	1367
1	1949	1368
1	1962	1369
1	1974	1370
1	1998	1371
1	2014	1372
1	2021	1373
1	2021	1374
1	2014	1375
1	2003	1376
1	1987	1377
1	1965	1378
1	1946	1379
1	1922	1380
1	1904	1381
1	1875	1382
1	1839	1383
1	1808	1384
1	1777	1385
1	1755	1386
1	1741	1387
1	1728	1388
1	1722	1389
1	1715	1390
1	1705	1391
1	1690	1392
1	1680	1393
1	1677	1394
1	1679	1395
1	1692	1396
1	1713	1397
1	1738	1398
1	1780	1399
1	1827	1400
1	1868	1401
1	1898	1402
1	1917	1403
1	1924	1404
1	1922	1405
1	1917	1406
1	1911	1407
1	1897	1408
1	1880	1409
1	1856	1410
1	1834	1411
1	1816	1412
1	1789	1413
1	1773	1414
1	1766	1415
1	1769	1416
1	1774	1417
1	1769	1418
1	1764	1419
1	1753	1420
1	1750	1421
1	1751	1422
1	1755	1423
1	1766	1424
1	1782	1425
1	1798	1426
1	1821	1427
1	1835	1428
1	1854	1429
1	1868	1430
1	1881	1431
1	1891	1432
1	1892	1433
1	1883	1434
1	1867	1435
1	1843	1436
1	1816	1437
1	1778	1438
1	1747	1439
1	1711	1440
1	1677	1441
1	1649	1442
1	1634	1443
1	1631	1444
1	1638	1445
1	1663	1446
1	1700	1447
1	1742	1448
1	1791	1449
1	1845	1450
1	1887	1451
1	1923	1452
1	1951	1453
1	1967	1454
1	1973	1455
1	1963	1456
1	1947	1457
1	1917	1458
1	1890	1459
1	1863	1460
1	1843	1461
1	1827	1462
1	1809	1463
1	1788	1464
1	1770	1465
1	1752	1466
1	1737	1467
1	1718	1468
1	1703	1469
1	1688	1470
1	1678	1471
1	1669	1472
1	1660	1473
1	1660	1474
1	1666	1475
1	1688	1476
1	1727	1477
1	1753	1478
1	1778	1479
1	1795	1480
1	1812	1481
1	1818	1482
1	1821	1483
1	1823	1484
1	1822	1485
1	1818	1486
1	1818	1487
1	1813	1488
1	1819	1489
1	1829	1490
1	1829	1491
1	1827	1492
1	1809	1493
1	1782	1494
1	1762	1495
1	1744	1496
1	1729	1497
1	1715	1498
1	1710	1499
1	1703	1500
1	1699	1501
1	1693	1502
1	1679	1503
1	1665	1504
1	1654	1505
1	1642	1506
1	1641	1507
1	1644	1508
1	1647	1509
1	1652	1510
1	1659	1511
1	1662	1512
1	1683	1513
1	1710	1514
1	1736	1515
1	1749	1516
1	1751	1517
1	1747	1518
1	1742	1519
1	1742	1520
1	1741	1521
1	1741	1522
1	1737	1523
1	1729	1524
1	1729	1525
1	1731	1526
1	1729	1527
1	1733	1528
1	1738	1529
1	1742	1530
1	1753	1531
1	1764	1532
1	1777	1533
1	1793	1534
1	1808	1535
1	1813	1536
1	1815	1537
1	1800	1538
1	1782	1539
1	1764	1540
1	1763	1541
1	1754	1542
1	1760	1543
1	1766	1544
1	1782	1545
1	1790	1546
1	1791	1547
1	1789	1548
1	1783	1549
1	1770	1550
1	1757	1551
1	1738	1552
1	1715	1553
1	1702	1554
1	1699	1555
1	1697	1556
1	1698	1557
1	1706	1558
1	1721	1559
1	1742	1560
1	1764	1561
1	1769	1562
1	1764	1563
1	1760	1564
1	1754	1565
1	1750	1566
1	1751	1567
1	1751	1568
1	1755	1569
1	1767	1570
1	1786	1571
1	1808	1572
1	1824	1573
1	1835	1574
1	1842	1575
1	1841	1576
1	1832	1577
1	1814	1578
1	1791	1579
1	1769	1580
1	1749	1581
1	1734	1582
1	1712	1583
1	1691	1584
1	1678	1585
1	1674	1586
1	1686	1587
1	1705	1588
1	1729	1589
1	1747	1590
1	1759	1591
1	1757	1592
1	1741	1593
1	1730	1594
1	1715	1595
1	1710	1596
1	1711	1597
1	1715	1598
1	1726	1599
1	1738	1600
1	1747	1601
1	1754	1602
1	1764	1603
1	1778	1604
1	1791	1605
1	1815	1606
1	1828	1607
1	1824	1608
1	1816	1609
1	1791	1610
1	1770	1611
1	1763	1612
1	1755	1613
1	1750	1614
1	1746	1615
1	1752	1616
1	1762	1617
1	1764	1618
1	1764	1619
1	1769	1620
1	1787	1621
1	1809	1622
1	1826	1623
1	1848	1624
1	1870	1625
1	1903	1626
1	1942	1627
1	1979	1628
1	2021	1629
1	2063	1630
1	2102	1631
1	2133	1632
1	2157	1633
1	2179	1634
1	2196	1635
1	2210	1636
1	2230	1637
1	2236	1638
1	2250	1639
1	2262	1640
1	2277	1641
1	2291	1642
1	2318	1643
1	2323	1644
1	2332	1645
1	2315	1646
1	2309	1647
1	2282	1648
1	2257	1649
1	2230	1650
1	2202	1651
1	2178	1652
1	2139	1653
1	2096	1654
1	2035	1655
1	1962	1656
1	1874	1657
1	1780	1658
1	1692	1659
1	1613	1660
1	1530	1661
1	1458	1662
1	1398	1663
1	1356	1664
1	1338	1665
1	1332	1666
1	1337	1667
1	1346	1668
1	1372	1669
1	1416	1670
1	1474	1671
1	1543	1672
1	1615	1673
1	1685	1674
1	1739	1675
1	1777	1676
1	1793	1677
1	1795	1678
1	1792	1679
1	1789	1680
1	1780	1681
1	1769	1682
1	1763	1683
1	1764	1684
1	1772	1685
1	1787	1686
1	1808	1687
1	1816	1688
1	1827	1689
1	1847	1690
1	1870	1691
1	1891	1692
1	1911	1693
1	1931	1694
1	1949	1695
1	1971	1696
1	1980	1697
1	1980	1698
1	1978	1699
1	1972	1700
1	1955	1701
1	1935	1702
1	1907	1703
1	1873	1704
1	1847	1705
1	1817	1706
1	1787	1707
1	1767	1708
1	1760	1709
1	1755	1710
1	1751	1711
1	1749	1712
1	1751	1713
1	1770	1714
1	1802	1715
1	1843	1716
1	1875	1717
1	1895	1718
1	1898	1719
1	1895	1720
1	1872	1721
1	1854	1722
1	1823	1723
1	1791	1724
1	1764	1725
1	1731	1726
1	1702	1727
1	1684	1728
1	1686	1729
1	1700	1730
1	1723	1731
1	1742	1732
1	1751	1733
1	1749	1734
1	1742	1735
1	1740	1736
1	1736	1737
1	1725	1738
1	1714	1739
1	1695	1740
1	1671	1741
1	1647	1742
1	1634	1743
1	1634	1744
1	1649	1745
1	1679	1746
1	1708	1747
1	1740	1748
1	1779	1749
1	1826	1750
1	1872	1751
1	1909	1752
1	1947	1753
1	1980	1754
1	2013	1755
1	2043	1756
1	2061	1757
1	2064	1758
1	2064	1759
1	2065	1760
1	2066	1761
1	2075	1762
1	2070	1763
1	2064	1764
1	2052	1765
1	2031	1766
1	2003	1767
1	1974	1768
1	1949	1769
1	1926	1770
1	1904	1771
1	1881	1772
1	1854	1773
1	1829	1774
1	1813	1775
1	1815	1776
1	1831	1777
1	1845	1778
1	1869	1779
1	1895	1780
1	1910	1781
1	1918	1782
1	1917	1783
1	1910	1784
1	1900	1785
1	1881	1786
1	1859	1787
1	1832	1788
1	1803	1789
1	1782	1790
1	1765	1791
1	1764	1792
1	1755	1793
1	1755	1794
1	1764	1795
1	1772	1796
1	1781	1797
1	1789	1798
1	1800	1799
1	1814	1800
1	1821	1801
1	1833	1802
1	1838	1803
1	1852	1804
1	1862	1805
1	1870	1806
1	1881	1807
1	1888	1808
1	1888	1809
1	1886	1810
1	1881	1811
1	1878	1812
1	1870	1813
1	1857	1814
1	1842	1815
1	1831	1816
1	1830	1817
1	1828	1818
1	1832	1819
1	1842	1820
1	1848	1821
1	1870	1822
1	1891	1823
1	1913	1824
1	1922	1825
1	1917	1826
1	1899	1827
1	1885	1828
1	1872	1829
1	1856	1830
1	1838	1831
1	1819	1832
1	1812	1833
1	1824	1834
1	1854	1835
1	1893	1836
1	1951	1837
1	2009	1838
1	2052	1839
1	2079	1840
1	2117	1841
1	2131	1842
1	2145	1843
1	2144	1844
1	2125	1845
1	2102	1846
1	2068	1847
1	2036	1848
1	2006	1849
1	1976	1850
1	1953	1851
1	1940	1852
1	1926	1853
1	1920	1854
1	1917	1855
1	1923	1856
1	1922	1857
1	1919	1858
1	1910	1859
1	1897	1860
1	1886	1861
1	1870	1862
1	1854	1863
1	1844	1864
1	1838	1865
1	1829	1866
1	1834	1867
1	1843	1868
1	1859	1869
1	1887	1870
1	1916	1871
1	1945	1872
1	1967	1873
1	1987	1874
1	2012	1875
1	2039	1876
1	2068	1877
1	2088	1878
1	2107	1879
1	2116	1880
1	2113	1881
1	2104	1882
1	2075	1883
1	2039	1884
1	1998	1885
1	1948	1886
1	1896	1887
1	1854	1888
1	1811	1889
1	1764	1890
1	1727	1891
1	1690	1892
1	1651	1893
1	1611	1894
1	1581	1895
1	1560	1896
1	1564	1897
1	1573	1898
1	1589	1899
1	1611	1900
1	1647	1901
1	1681	1902
1	1713	1903
1	1746	1904
1	1779	1905
1	1818	1906
1	1856	1907
1	1887	1908
1	1922	1909
1	1958	1910
1	1985	1911
1	2011	1912
1	2024	1913
1	2027	1914
1	2031	1915
1	2039	1916
1	2040	1917
1	2026	1918
1	2000	1919
1	1974	1920
1	1949	1921
1	1932	1922
1	1920	1923
1	1916	1924
1	1911	1925
1	1904	1926
1	1900	1927
1	1895	1928
1	1884	1929
1	1873	1930
1	1861	1931
1	1845	1932
1	1830	1933
1	1824	1934
1	1819	1935
1	1817	1936
1	1814	1937
1	1808	1938
1	1809	1939
1	1817	1940
1	1829	1941
1	1829	1942
1	1832	1943
1	1818	1944
1	1814	1945
1	1809	1946
1	1809	1947
1	1808	1948
1	1794	1949
1	1773	1950
1	1749	1951
1	1727	1952
1	1710	1953
1	1697	1954
1	1684	1955
1	1668	1956
1	1652	1957
1	1642	1958
1	1644	1959
1	1658	1960
1	1682	1961
1	1697	1962
1	1706	1963
1	1717	1964
1	1742	1965
1	1767	1966
1	1800	1967
1	1832	1968
1	1869	1969
1	1908	1970
1	1940	1971
1	1974	1972
1	1989	1973
1	1993	1974
1	1976	1975
1	1954	1976
1	1922	1977
1	1871	1978
1	1811	1979
1	1734	1980
1	1660	1981
1	1602	1982
1	1554	1983
1	1529	1984
1	1525	1985
1	1525	1986
1	1533	1987
1	1549	1988
1	1576	1989
1	1607	1990
1	1645	1991
1	1677	1992
1	1699	1993
1	1709	1994
1	1698	1995
1	1672	1996
1	1634	1997
1	1598	1998
1	1575	1999
1	1556	2000
1	1548	2001
1	1556	2002
1	1571	2003
1	1581	2004
1	1585	2005
1	1589	2006
1	1594	2007
1	1605	2008
1	1626	2009
1	1649	2010
1	1674	2011
1	1697	2012
1	1714	2013
1	1737	2014
1	1764	2015
1	1791	2016
1	1826	2017
1	1843	2018
1	1854	2019
1	1858	2020
1	1856	2021
1	1856	2022
1	1857	2023
1	1859	2024
1	1862	2025
1	1865	2026
1	1865	2027
1	1856	2028
1	1856	2029
1	1857	2030
1	1864	2031
1	1877	2032
1	1882	2033
1	1880	2034
1	1869	2035
1	1855	2036
1	1825	2037
1	1790	2038
1	1752	2039
1	1706	2040
1	1665	2041
1	1628	2042
1	1607	2043
1	1595	2044
1	1596	2045
1	1607	2046
1	1634	2047
1	1681	2048
1	1735	2049
1	1787	2050
1	1843	2051
1	1869	2052
1	1889	2053
1	1895	2054
1	1887	2055
1	1861	2056
1	1831	2057
1	1780	2058
1	1750	2059
1	1716	2060
1	1686	2061
1	1662	2062
1	1639	2063
1	1616	2064
1	1591	2065
1	1557	2066
1	1528	2067
1	1503	2068
1	1493	2069
1	1495	2070
1	1508	2071
1	1534	2072
1	1566	2073
1	1607	2074
1	1655	2075
1	1691	2076
1	1726	2077
1	1747	2078
1	1764	2079
1	1779	2080
1	1788	2081
1	1788	2082
1	1789	2083
1	1789	2084
1	1776	2085
1	1751	2086
1	1711	2087
1	1661	2088
1	1633	2089
1	1610	2090
1	1598	2091
1	1600	2092
1	1608	2093
1	1630	2094
1	1660	2095
1	1691	2096
1	1726	2097
1	1760	2098
1	1791	2099
1	1818	2100
1	1832	2101
1	1837	2102
1	1823	2103
1	1798	2104
1	1769	2105
1	1738	2106
1	1705	2107
1	1661	2108
1	1618	2109
1	1573	2110
1	1523	2111
1	1478	2112
1	1447	2113
1	1425	2114
1	1424	2115
1	1443	2116
1	1481	2117
1	1525	2118
1	1575	2119
1	1623	2120
1	1667	2121
1	1716	2122
1	1751	2123
1	1769	2124
1	1778	2125
1	1778	2126
1	1773	2127
1	1770	2128
1	1769	2129
1	1764	2130
1	1755	2131
1	1743	2132
1	1723	2133
1	1701	2134
1	1680	2135
1	1661	2136
1	1660	2137
1	1652	2138
1	1647	2139
1	1687	2160
1	1699	2161
1	1712	2162
1	1716	2163
1	1717	2164
1	1715	2165
1	1704	2166
1	1690	2167
1	1660	2168
1	1625	2169
1	1581	2170
1	1536	2171
1	1503	2172
1	1490	2173
1	1487	2174
1	1487	2175
1	1498	2176
1	1516	2177
1	1533	2178
1	1555	2179
1	1639	2140
1	1619	2141
1	1611	2142
1	1615	2143
1	1623	2144
1	1634	2145
1	1647	2146
1	1659	2147
1	1661	2148
1	1661	2149
1	1659	2150
1	1645	2151
1	1630	2152
1	1620	2153
1	1616	2154
1	1620	2155
1	1634	2156
1	1647	2157
1	1659	2158
1	1673	2159
1	1581	2180
1	1611	2181
1	1660	2182
1	1686	2183
1	1692	2184
1	1683	2185
1	1660	2186
1	1638	2187
1	1616	2188
1	1598	2189
1	1583	2190
1	1571	2191
1	1553	2192
1	1529	2193
1	1517	2194
1	1516	2195
1	1529	2196
1	1543	2197
1	1550	2198
1	1553	2199
1	1544	2200
1	1541	2201
1	1544	2202
1	1562	2203
1	1586	2204
1	1607	2205
1	1631	2206
1	1643	2207
1	1647	2208
1	1647	2209
1	1638	2210
1	1618	2211
1	1602	2212
1	1585	2213
1	1570	2214
1	1546	2215
1	1529	2216
1	1517	2217
1	1519	2218
1	1529	2219
1	1542	2220
1	1561	2221
1	1589	2222
1	1610	2223
1	1638	2224
1	1660	2225
1	1676	2226
1	1686	2227
1	1682	2228
1	1672	2229
1	1664	2230
1	1665	2231
1	1683	2232
1	1708	2233
1	1730	2234
1	1743	2235
1	1751	2236
1	1749	2237
1	1738	2238
1	1730	2239
1	1727	2240
1	1720	2241
1	1711	2242
1	1710	2243
1	1698	2244
1	1699	2245
1	1691	2246
1	1698	2247
1	1713	2248
1	1727	2249
1	1733	2250
1	1728	2251
1	1718	2252
1	1701	2253
1	1684	2254
1	1664	2255
1	1647	2256
1	1632	2257
1	1615	2258
1	1599	2259
1	1589	2260
1	1592	2261
1	1585	2262
1	1581	2263
1	1574	2264
1	1562	2265
1	1548	2266
1	1533	2267
1	1517	2268
1	1506	2269
1	1503	2270
1	1503	2271
1	1521	2272
1	1535	2273
1	1547	2274
1	1561	2275
1	1581	2276
1	1594	2277
1	1607	2278
1	1620	2279
1	1629	2280
1	1629	2281
1	1625	2282
1	1609	2283
1	1603	2284
1	1585	2285
1	1573	2286
1	1565	2287
1	1556	2288
1	1554	2289
1	1555	2290
1	1555	2291
1	1556	2292
1	1559	2293
1	1568	2294
1	1572	2295
1	1567	2296
1	1555	2297
1	1531	2298
1	1506	2299
1	1475	2300
1	1435	2301
1	1399	2302
1	1361	2303
1	1330	2304
1	1307	2305
1	1298	2306
1	1301	2307
1	1315	2308
1	1331	2309
1	1349	2310
1	1380	2311
1	1417	2312
1	1448	2313
1	1480	2314
1	1513	2315
1	1543	2316
1	1581	2317
1	1611	2318
1	1641	2319
1	1660	2320
1	1672	2321
1	1683	2322
1	1691	2323
1	1706	2324
1	1718	2325
1	1735	2326
1	1752	2327
1	1769	2328
1	1796	2329
1	1836	2330
1	1873	2331
1	1923	2332
1	1975	2333
1	2028	2334
1	2077	2335
1	2115	2336
1	2139	2337
1	2145	2338
1	2125	2339
1	2078	2340
1	2024	2341
1	1951	2342
1	1871	2343
1	1786	2344
1	1692	2345
1	1598	2346
1	1494	2347
1	1406	2348
1	1318	2349
1	1252	2350
1	1211	2351
1	1188	2352
1	1175	2353
1	1175	2354
1	1183	2355
1	1194	2356
1	1218	2357
1	1239	2358
1	1257	2359
1	1279	2360
1	1299	2361
1	1323	2362
1	1332	2363
1	1333	2364
1	1335	2365
1	1335	2366
1	1346	2367
1	1360	2368
1	1376	2369
1	1400	2370
1	1412	2371
1	1409	2372
1	1398	2373
1	1383	2374
1	1369	2375
1	1356	2376
1	1347	2377
1	1341	2378
1	1333	2379
1	1323	2380
1	1308	2381
1	1288	2382
1	1263	2383
1	1229	2384
1	1203	2385
1	1186	2386
1	1177	2387
1	1184	2388
1	1207	2389
1	1243	2390
1	1291	2391
1	1342	2392
1	1384	2393
1	1424	2394
1	1453	2395
1	1476	2396
1	1476	2397
1	1466	2398
1	1441	2399
1	1400	2400
1	1354	2401
1	1310	2402
1	1266	2403
1	1226	2404
1	1200	2405
1	1186	2406
1	1188	2407
1	1193	2408
1	1209	2409
1	1224	2410
1	1241	2411
1	1258	2412
1	1269	2413
1	1280	2414
1	1293	2415
1	1312	2416
1	1335	2417
1	1353	2418
1	1371	2419
1	1384	2420
1	1403	2421
1	1422	2422
1	1425	2423
1	1426	2424
1	1420	2425
1	1398	2426
1	1372	2427
1	1364	2428
1	1373	2429
1	1395	2430
1	1402	2431
1	1407	2432
1	1395	2433
1	1374	2434
1	1353	2435
1	1328	2436
1	1304	2437
1	1269	2438
1	1243	2439
1	1228	2440
1	1216	2441
1	1215	2442
1	1217	2443
1	1228	2444
1	1242	2445
1	1267	2446
1	1293	2447
1	1319	2448
1	1345	2449
1	1364	2450
1	1395	2451
1	1424	2452
1	1463	2453
1	1502	2454
1	1538	2455
1	1562	2456
1	1564	2457
1	1551	2458
1	1528	2459
1	1503	2460
1	1481	2461
1	1452	2462
1	1435	2463
1	1411	2464
1	1382	2465
1	1356	2466
1	1330	2467
1	1297	2468
1	1265	2469
1	1227	2470
1	1188	2471
1	1161	2472
1	1135	2473
1	1124	2474
1	1137	2475
1	1166	2476
1	1190	2477
1	1206	2478
1	1219	2479
1	1230	2480
1	1241	2481
1	1260	2482
1	1280	2483
1	1296	2484
1	1319	2485
1	1351	2486
1	1399	2487
1	1438	2488
1	1469	2489
1	1489	2490
1	1491	2491
1	1468	2492
1	1433	2493
1	1398	2494
1	1359	2495
1	1323	2496
1	1293	2497
1	1262	2498
1	1242	2499
1	1241	2500
1	1261	2501
1	1294	2502
1	1332	2503
1	1351	2504
1	1360	2505
1	1364	2506
1	1363	2507
1	1364	2508
1	1361	2509
1	1355	2510
1	1341	2511
1	1344	2512
1	1343	2513
1	1345	2514
1	1347	2515
1	1350	2516
1	1355	2517
1	1354	2518
1	1354	2519
1	1355	2520
1	1361	2521
1	1359	2522
1	1368	2523
1	1379	2524
1	1400	2525
1	1424	2526
1	1449	2527
1	1464	2528
1	1471	2529
1	1464	2530
1	1450	2531
1	1438	2532
1	1427	2533
1	1422	2534
1	1412	2535
1	1410	2536
1	1407	2537
1	1406	2538
1	1411	2539
1	1422	2540
1	1435	2541
1	1449	2542
1	1464	2543
1	1472	2544
1	1476	2545
1	1478	2546
1	1486	2547
1	1491	2548
1	1495	2549
1	1492	2550
1	1487	2551
1	1481	2552
1	1475	2553
1	1462	2554
1	1450	2555
1	1439	2556
1	1419	2557
1	1420	2558
1	1421	2559
1	1427	2560
1	1451	2561
1	1482	2562
1	1528	2563
1	1566	2564
1	1601	2565
1	1620	2566
1	1618	2567
1	1602	2568
1	1567	2569
1	1513	2570
1	1452	2571
1	1398	2572
1	1350	2573
1	1314	2574
1	1286	2575
1	1266	2576
1	1255	2577
1	1260	2578
1	1275	2579
1	1293	2580
1	1319	2581
1	1335	2582
1	1350	2583
1	1372	2584
1	1398	2585
1	1406	2586
1	1410	2587
1	1399	2588
1	1376	2589
1	1353	2590
1	1333	2591
1	1323	2592
1	1319	2593
1	1330	2594
1	1347	2595
1	1371	2596
1	1382	2597
1	1398	2598
1	1397	2599
1	1380	2600
1	1355	2601
1	1332	2602
1	1309	2603
1	1289	2604
1	1271	2605
1	1268	2606
1	1275	2607
1	1292	2608
1	1306	2609
1	1328	2610
1	1355	2611
1	1383	2612
1	1422	2613
1	1454	2614
1	1482	2615
1	1503	2616
1	1523	2617
1	1521	2618
1	1508	2619
1	1377	2640
1	1373	2641
1	1368	2642
1	1351	2643
1	1337	2644
1	1319	2645
1	1306	2646
1	1297	2647
1	1300	2648
1	1305	2649
1	1308	2650
1	1319	2651
1	1322	2652
1	1332	2653
1	1341	2654
1	1342	2655
1	1337	2656
1	1325	2657
1	1317	2658
1	1305	2659
1	1487	2620
1	1453	2621
1	1412	2622
1	1367	2623
1	1323	2624
1	1285	2625
1	1254	2626
1	1228	2627
1	1215	2628
1	1214	2629
1	1219	2630
1	1231	2631
1	1258	2632
1	1280	2633
1	1304	2634
1	1327	2635
1	1346	2636
1	1364	2637
1	1374	2638
1	1381	2639
1	1292	2660
1	1280	2661
1	1275	2662
1	1265	2663
1	1247	2664
1	1229	2665
1	1206	2666
1	1188	2667
1	1188	2668
1	1202	2669
1	1224	2670
1	1251	2671
1	1281	2672
1	1320	2673
1	1359	2674
1	1397	2675
1	1420	2676
1	1439	2677
1	1449	2678
1	1455	2679
1	1453	2680
1	1442	2681
1	1424	2682
1	1405	2683
1	1381	2684
1	1357	2685
1	1334	2686
1	1310	2687
1	1296	2688
1	1301	2689
1	1308	2690
1	1315	2691
1	1319	2692
1	1321	2693
1	1319	2694
1	1314	2695
1	1293	2696
1	1260	2697
1	1232	2698
1	1214	2699
1	1204	2700
1	1198	2701
1	1193	2702
1	1188	2703
1	1176	2704
1	1165	2705
1	1161	2706
1	1172	2707
1	1188	2708
1	1219	2709
1	1260	2710
1	1305	2711
1	1348	2712
1	1398	2713
1	1439	2714
1	1476	2715
1	1503	2716
1	1520	2717
1	1535	2718
1	1543	2719
1	1538	2720
1	1526	2721
1	1504	2722
1	1475	2723
1	1433	2724
1	1384	2725
1	1346	2726
1	1319	2727
1	1299	2728
1	1288	2729
1	1286	2730
1	1291	2731
1	1297	2732
1	1309	2733
1	1322	2734
1	1330	2735
1	1330	2736
1	1328	2737
1	1319	2738
1	1314	2739
1	1317	2740
1	1319	2741
1	1320	2742
1	1327	2743
1	1331	2744
1	1332	2745
1	1332	2746
1	1330	2747
1	1327	2748
1	1332	2749
1	1343	2750
1	1350	2751
1	1361	2752
1	1364	2753
1	1360	2754
1	1353	2755
1	1350	2756
1	1346	2757
1	1346	2758
1	1343	2759
1	1338	2760
1	1336	2761
1	1325	2762
1	1315	2763
1	1294	2764
1	1279	2765
1	1269	2766
1	1271	2767
1	1278	2768
1	1288	2769
1	1305	2770
1	1323	2771
1	1347	2772
1	1371	2773
1	1384	2774
1	1396	2775
1	1405	2776
1	1415	2777
1	1433	2778
1	1448	2779
1	1458	2780
1	1465	2781
1	1474	2782
1	1465	2783
1	1447	2784
1	1427	2785
1	1409	2786
1	1395	2787
1	1384	2788
1	1397	2789
1	1412	2790
1	1438	2791
1	1461	2792
1	1477	2793
1	1490	2794
1	1500	2795
1	1499	2796
1	1501	2797
1	1486	2798
1	1464	2799
1	1437	2800
1	1413	2801
1	1398	2802
1	1395	2803
1	1406	2804
1	1425	2805
1	1439	2806
1	1443	2807
1	1437	2808
1	1429	2809
1	1424	2810
1	1433	2811
1	1450	2812
1	1463	2813
1	1476	2814
1	1485	2815
1	1493	2816
1	1492	2817
1	1490	2818
1	1487	2819
1	1481	2820
1	1476	2821
1	1469	2822
1	1469	2823
1	1467	2824
1	1466	2825
1	1467	2826
1	1476	2827
1	1469	2828
1	1463	2829
1	1458	2830
1	1451	2831
1	1446	2832
1	1439	2833
1	1430	2834
1	1420	2835
1	1406	2836
1	1383	2837
1	1371	2838
1	1357	2839
1	1346	2840
1	1346	2841
1	1341	2842
1	1341	2843
1	1331	2844
1	1319	2845
1	1310	2846
1	1319	2847
1	1344	2848
1	1376	2849
1	1413	2850
1	1438	2851
1	1450	2852
1	1460	2853
1	1476	2854
1	1490	2855
1	1498	2856
1	1493	2857
1	1480	2858
1	1463	2859
1	1453	2860
1	1437	2861
1	1424	2862
1	1415	2863
1	1409	2864
1	1409	2865
1	1416	2866
1	1421	2867
1	1428	2868
1	1439	2869
1	1451	2870
1	1464	2871
1	1478	2872
1	1485	2873
1	1480	2874
1	1471	2875
1	1458	2876
1	1451	2877
1	1458	2878
1	1478	2879
1	1508	2880
1	1545	2881
1	1579	2882
1	1608	2883
1	1634	2884
1	1641	2885
1	1638	2886
1	1636	2887
1	1623	2888
1	1609	2889
1	1597	2890
1	1583	2891
1	1574	2892
1	1572	2893
1	1581	2894
1	1593	2895
1	1607	2896
1	1621	2897
1	1646	2898
1	1674	2899
1	1701	2900
1	1724	2901
1	1738	2902
1	1734	2903
1	1716	2904
1	1697	2905
1	1672	2906
1	1643	2907
1	1610	2908
1	1584	2909
1	1554	2910
1	1520	2911
1	1482	2912
1	1450	2913
1	1419	2914
1	1381	2915
1	1345	2916
1	1317	2917
1	1294	2918
1	1287	2919
1	1293	2920
1	1315	2921
1	1338	2922
1	1366	2923
1	1400	2924
1	1433	2925
1	1469	2926
1	1502	2927
1	1529	2928
1	1546	2929
1	1549	2930
1	1543	2931
1	1536	2932
1	1523	2933
1	1512	2934
1	1502	2935
1	1494	2936
1	1489	2937
1	1487	2938
1	1490	2939
1	1479	2940
1	1467	2941
1	1447	2942
1	1426	2943
1	1417	2944
1	1411	2945
1	1418	2946
1	1435	2947
1	1458	2948
1	1490	2949
1	1527	2950
1	1555	2951
1	1584	2952
1	1607	2953
1	1629	2954
1	1638	2955
1	1641	2956
1	1643	2957
1	1647	2958
1	1652	2959
1	1657	2960
1	1665	2961
1	1688	2962
1	1707	2963
1	1720	2964
1	1729	2965
1	1727	2966
1	1717	2967
1	1699	2968
1	1683	2969
1	1661	2970
1	1643	2971
1	1619	2972
1	1607	2973
1	1597	2974
1	1584	2975
1	1569	2976
1	1556	2977
1	1542	2978
1	1534	2979
1	1534	2980
1	1538	2981
1	1546	2982
1	1551	2983
1	1555	2984
1	1562	2985
1	1580	2986
1	1590	2987
1	1607	2988
1	1621	2989
1	1636	2990
1	1658	2991
1	1693	2992
1	1734	2993
1	1772	2994
1	1803	2995
1	1823	2996
1	1817	2997
1	1801	2998
1	1785	2999
1	1755	3000
1	1707	3001
1	1647	3002
1	1585	3003
1	1517	3004
1	1454	3005
1	1401	3006
1	1368	3007
1	1353	3008
1	1359	3009
1	1370	3010
1	1376	3011
1	1380	3012
1	1376	3013
1	1371	3014
1	1360	3015
1	1348	3016
1	1328	3017
1	1306	3018
1	1286	3019
1	1278	3020
1	1284	3021
1	1319	3022
1	1369	3023
1	1436	3024
1	1503	3025
1	1577	3026
1	1647	3027
1	1713	3028
1	1766	3029
1	1817	3030
1	1859	3031
1	1895	3032
1	1935	3033
1	1974	3034
1	2009	3035
1	2043	3036
1	2086	3037
1	2123	3038
1	2159	3039
1	2196	3040
1	2233	3041
1	2262	3042
1	2299	3043
1	2338	3044
1	2364	3045
1	2372	3046
1	2367	3047
1	2343	3048
1	2313	3049
1	2273	3050
1	2221	3051
1	2175	3052
1	2117	3053
1	2050	3054
1	1978	3055
1	1904	3056
1	1831	3057
1	1757	3058
1	1696	3059
1	1638	3060
1	1593	3061
1	1551	3062
1	1521	3063
1	1494	3064
1	1473	3065
1	1464	3066
1	1468	3067
1	1467	3068
1	1463	3069
1	1452	3070
1	1445	3071
1	1436	3072
1	1427	3073
1	1424	3074
1	1421	3075
1	1419	3076
1	1422	3077
1	1438	3078
1	1465	3079
1	1488	3080
1	1497	3081
1	1501	3082
1	1490	3083
1	1476	3084
1	1449	3085
1	1414	3086
1	1382	3087
1	1357	3088
1	1337	3089
1	1323	3090
1	1337	3091
1	1370	3092
1	1413	3093
1	1462	3094
1	1513	3095
1	1562	3096
1	1618	3097
1	1664	3098
1	1703	3099
1	1729	3100
1	1763	3101
1	1778	3102
1	1791	3103
1	1796	3104
1	1800	3105
1	1803	3106
1	1803	3107
1	1800	3108
1	1793	3109
1	1785	3110
1	1774	3111
1	1766	3112
1	1743	3113
1	1712	3114
1	1680	3115
1	1647	3116
1	1620	3117
1	1595	3118
1	1581	3119
1	1571	3120
1	1567	3121
1	1570	3122
1	1590	3123
1	1625	3124
1	1660	3125
1	1690	3126
1	1726	3127
1	1744	3128
1	1765	3129
1	1788	3130
1	1812	3131
1	1832	3132
1	1848	3133
1	1860	3134
1	1865	3135
1	1865	3136
1	1855	3137
1	1850	3138
1	1841	3139
1	1827	3140
1	1803	3141
1	1787	3142
1	1770	3143
1	1746	3144
1	1715	3145
1	1691	3146
1	1677	3147
1	1668	3148
1	1661	3149
1	1660	3150
1	1659	3151
1	1659	3152
1	1660	3153
1	1670	3154
1	1684	3155
1	1690	3156
1	1701	3157
1	1717	3158
1	1736	3159
1	1414	3180
1	1423	3181
1	1458	3182
1	1517	3183
1	1590	3184
1	1658	3185
1	1713	3186
1	1762	3187
1	1794	3188
1	1835	3189
1	1869	3190
1	1895	3191
1	1907	3192
1	1921	3193
1	1932	3194
1	1934	3195
1	1926	3196
1	1906	3197
1	1893	3198
1	1883	3199
1	1749	3160
1	1760	3161
1	1769	3162
1	1782	3163
1	1792	3164
1	1809	3165
1	1823	3166
1	1823	3167
1	1827	3168
1	1825	3169
1	1818	3170
1	1800	3171
1	1771	3172
1	1728	3173
1	1670	3174
1	1618	3175
1	1559	3176
1	1508	3177
1	1463	3178
1	1430	3179
1	1870	3200
1	1854	3201
1	1841	3202
1	1819	3203
1	1809	3204
1	1796	3205
1	1795	3206
1	1795	3207
1	1791	3208
1	1791	3209
1	1793	3210
1	1808	3211
1	1815	3212
1	1823	3213
1	1832	3214
1	1838	3215
1	1841	3216
1	1843	3217
1	1832	3218
1	1823	3219
1	1868	3260
1	1881	3261
1	1904	3262
1	1915	3263
1	1926	3264
1	1936	3265
1	1947	3266
1	1948	3267
1	1948	3268
1	1936	3269
1	1926	3270
1	1919	3271
1	1895	3272
1	1869	3273
1	1840	3274
1	1811	3275
1	1783	3276
1	1778	3277
1	1783	3278
1	1803	3279
1	1965	3240
1	1952	3241
1	1935	3242
1	1905	3243
1	1869	3244
1	1832	3245
1	1793	3246
1	1773	3247
1	1769	3248
1	1776	3249
1	1795	3250
1	1822	3251
1	1841	3252
1	1847	3253
1	1854	3254
1	1856	3255
1	1859	3256
1	1855	3257
1	1854	3258
1	1854	3259
1	1838	3280
1	1870	3281
1	1903	3282
1	1925	3283
1	1945	3284
1	1961	3285
1	1975	3286
1	1985	3287
1	1986	3288
1	1981	3289
1	1971	3290
1	1953	3291
1	1945	3292
1	1923	3293
1	1903	3294
1	1882	3295
1	1865	3296
1	1852	3297
1	1843	3298
1	1835	3299
1	1817	3220
1	1808	3221
1	1796	3222
1	1786	3223
1	1778	3224
1	1773	3225
1	1776	3226
1	1767	3227
1	1764	3228
1	1760	3229
1	1764	3230
1	1787	3231
1	1821	3232
1	1851	3233
1	1881	3234
1	1909	3235
1	1935	3236
1	1952	3237
1	1965	3238
1	1974	3239
1	1831	3300
1	1843	3301
1	1856	3302
1	1873	3303
1	1890	3304
1	1895	3305
1	1895	3306
1	1901	3307
1	1908	3308
1	1914	3309
1	1922	3310
1	1927	3311
1	1938	3312
1	1946	3313
1	1946	3314
1	1947	3315
1	1946	3316
1	1933	3317
1	1926	3318
1	1920	3319
1	1913	3320
1	1912	3321
1	1913	3322
1	1909	3323
1	1896	3324
1	1886	3325
1	1875	3326
1	1867	3327
1	1856	3328
1	1838	3329
1	1826	3330
1	1817	3331
1	1809	3332
1	1802	3333
1	1795	3334
1	1787	3335
1	1778	3336
1	1783	3337
1	1790	3338
1	1799	3339
1	1803	3340
1	1826	3341
1	1841	3342
1	1845	3343
1	1858	3344
1	1872	3345
1	1883	3346
1	1887	3347
1	1884	3348
1	1868	3349
1	1838	3350
1	1786	3351
1	1731	3352
1	1689	3353
1	1660	3354
1	1638	3355
1	1634	3356
1	1649	3357
1	1661	3358
1	1679	3359
1	1687	3360
1	1690	3361
1	1682	3362
1	1670	3363
1	1662	3364
1	1664	3365
1	1675	3366
1	1698	3367
1	1712	3368
1	1719	3369
1	1713	3370
1	1705	3371
1	1695	3372
1	1687	3373
1	1692	3374
1	1691	3375
1	1694	3376
1	1683	3377
1	1670	3378
1	1662	3379
1	1660	3380
1	1661	3381
1	1677	3382
1	1697	3383
1	1727	3384
1	1752	3385
1	1780	3386
1	1815	3387
1	1847	3388
1	1875	3389
1	1896	3390
1	1911	3391
1	1908	3392
1	1907	3393
1	1903	3394
1	1899	3395
1	1895	3396
1	1886	3397
1	1870	3398
1	1858	3399
1	1854	3400
1	1854	3401
1	1856	3402
1	1856	3403
1	1854	3404
1	1854	3405
1	1857	3406
1	1854	3407
1	1852	3408
1	1843	3409
1	1832	3410
1	1824	3411
1	1822	3412
1	1821	3413
1	1817	3414
1	1816	3415
1	1817	3416
1	1818	3417
1	1822	3418
1	1821	3419
1	1830	3420
1	1832	3421
1	1831	3422
1	1838	3423
1	1851	3424
1	1869	3425
1	1888	3426
1	1906	3427
1	1910	3428
1	1919	3429
1	1926	3430
1	1926	3431
1	1922	3432
1	1919	3433
1	1911	3434
1	1898	3435
1	1874	3436
1	1836	3437
1	1791	3438
1	1764	3439
1	1734	3440
1	1705	3441
1	1684	3442
1	1679	3443
1	1674	3444
1	1672	3445
1	1671	3446
1	1685	3447
1	1712	3448
1	1751	3449
1	1791	3450
1	1827	3451
1	1847	3452
1	1866	3453
1	1881	3454
1	1893	3455
1	1893	3456
1	1881	3457
1	1868	3458
1	1846	3459
1	1832	3460
1	1808	3461
1	1787	3462
1	1764	3463
1	1752	3464
1	1749	3465
1	1752	3466
1	1755	3467
1	1761	3468
1	1755	3469
1	1738	3470
1	1712	3471
1	1688	3472
1	1661	3473
1	1647	3474
1	1647	3475
1	1660	3476
1	1668	3477
1	1674	3478
1	1683	3479
1	1692	3480
1	1715	3481
1	1744	3482
1	1780	3483
1	1823	3484
1	1866	3485
1	1913	3486
1	1973	3487
1	2023	3488
1	2066	3489
1	2096	3490
1	2114	3491
1	2115	3492
1	2105	3493
1	2079	3494
1	2044	3495
1	2009	3496
1	1967	3497
1	1936	3498
1	1912	3499
1	1892	3500
1	1874	3501
1	1869	3502
1	1857	3503
1	1847	3504
1	1842	3505
1	1832	3506
1	1834	3507
1	1831	3508
1	1823	3509
1	1803	3510
1	1789	3511
1	1775	3512
1	1764	3513
1	1760	3514
1	1756	3515
1	1763	3516
1	1778	3517
1	1791	3518
1	1801	3519
1	1815	3520
1	1825	3521
1	1832	3522
1	1840	3523
1	1838	3524
1	1828	3525
1	1814	3526
1	1780	3527
1	1751	3528
1	1725	3529
1	1715	3530
1	1712	3531
1	1720	3532
1	1726	3533
1	1734	3534
1	1738	3535
1	1742	3536
1	1751	3537
1	1755	3538
1	1754	3539
1	1749	3540
1	1751	3541
1	1751	3542
1	1749	3543
1	1744	3544
1	1737	3545
1	1717	3546
1	1701	3547
1	1679	3548
1	1659	3549
1	1646	3550
1	1646	3551
1	1651	3552
1	1665	3553
1	1686	3554
1	1712	3555
1	1738	3556
1	1751	3557
1	1754	3558
1	1752	3559
1	1759	3560
1	1764	3561
1	1776	3562
1	1782	3563
1	1793	3564
1	1815	3565
1	1823	3566
1	1830	3567
1	1835	3568
1	1843	3569
1	1858	3570
1	1880	3571
1	1899	3572
1	1926	3573
1	1948	3574
1	1958	3575
1	1960	3576
1	1963	3577
1	1953	3578
1	1940	3579
1	1924	3580
1	1908	3581
1	1896	3582
1	1885	3583
1	1880	3584
1	1882	3585
1	1881	3586
1	1867	3587
1	1856	3588
1	1842	3589
1	1821	3590
1	1798	3591
1	1791	3592
1	1778	3593
1	1775	3594
1	1778	3595
1	1785	3596
1	1783	3597
1	1787	3598
1	1790	3599
1	1782	3600
1	1777	3601
1	1777	3602
1	1788	3603
1	1791	3604
1	1793	3605
1	1794	3606
1	1817	3607
1	1841	3608
1	1865	3609
1	1886	3610
1	1908	3611
1	1924	3612
1	1939	3613
1	1946	3614
1	1940	3615
1	1925	3616
1	1893	3617
1	1855	3618
1	1823	3619
1	1791	3620
1	1766	3621
1	1751	3622
1	1736	3623
1	1723	3624
1	1721	3625
1	1725	3626
1	1741	3627
1	1770	3628
1	1816	3629
1	1859	3630
1	1907	3631
1	1949	3632
1	1985	3633
1	2009	3634
1	2013	3635
1	2012	3636
1	2012	3637
1	2003	3638
1	1998	3639
1	1989	3640
1	1974	3641
1	1949	3642
1	1932	3643
1	1921	3644
1	1904	3645
1	1888	3646
1	1873	3647
1	1869	3648
1	1870	3649
1	1878	3650
1	1877	3651
1	1871	3652
1	1867	3653
1	1859	3654
1	1856	3655
1	1857	3656
1	1849	3657
1	1841	3658
1	1832	3659
1	1831	3660
1	1841	3661
1	1843	3662
1	1849	3663
1	1854	3664
1	1857	3665
1	1862	3666
1	1869	3667
1	1872	3668
1	1873	3669
1	1869	3670
1	1869	3671
1	1875	3672
1	1881	3673
1	1886	3674
1	1888	3675
1	1888	3676
1	1875	3677
1	1866	3678
1	1853	3679
1	1838	3680
1	1825	3681
1	1819	3682
1	1809	3683
1	1791	3684
1	1772	3685
1	1753	3686
1	1738	3687
1	1728	3688
1	1724	3689
1	1729	3690
1	1737	3691
1	1737	3692
1	1740	3693
1	1750	3694
1	1760	3695
1	1769	3696
1	1782	3697
1	1790	3698
1	1800	3699
1	1817	3700
1	1831	3701
1	1850	3702
1	1869	3703
1	1893	3704
1	1911	3705
1	1925	3706
1	1924	3707
1	1914	3708
1	1908	3709
1	1893	3710
1	1872	3711
1	1857	3712
1	1843	3713
1	1831	3714
1	1830	3715
1	1833	3716
1	1843	3717
1	1853	3718
1	1861	3719
1	1869	3720
1	1881	3721
1	1891	3722
1	1903	3723
1	1908	3724
1	1910	3725
1	1909	3726
1	1914	3727
1	1920	3728
1	1923	3729
1	1935	3730
1	1946	3731
1	1957	3732
1	1963	3733
1	1968	3734
1	1968	3735
1	1963	3736
1	1956	3737
1	1950	3738
1	1949	3739
1	1948	3740
1	1948	3741
1	1948	3742
1	1960	3743
1	1974	3744
1	2000	3745
1	2032	3746
1	2071	3747
1	2119	3748
1	2170	3749
1	2221	3750
1	2261	3751
1	2274	3752
1	2283	3753
1	2299	3754
1	2315	3755
1	2332	3756
1	2341	3757
1	2332	3758
1	2312	3759
1	1584	3780
1	1636	3781
1	1686	3782
1	1737	3783
1	1778	3784
1	1818	3785
1	1854	3786
1	1881	3787
1	1898	3788
1	1913	3789
1	1922	3790
1	1932	3791
1	1931	3792
1	1931	3793
1	1937	3794
1	1948	3795
1	1957	3796
1	1955	3797
1	1955	3798
1	1958	3799
1	2292	3760
1	2269	3761
1	2240	3762
1	2193	3763
1	2131	3764
1	2052	3765
1	1961	3766
1	1862	3767
1	1764	3768
1	1680	3769
1	1611	3770
1	1556	3771
1	1529	3772
1	1504	3773
1	1494	3774
1	1489	3775
1	1497	3776
1	1512	3777
1	1528	3778
1	1549	3779
1	1948	3800
1	1932	3801
1	1921	3802
1	1903	3803
1	1890	3804
1	1877	3805
1	1870	3806
1	1865	3807
1	1863	3808
1	1862	3809
1	1867	3810
1	1868	3811
1	1865	3812
1	1866	3813
1	1864	3814
1	1856	3815
1	1846	3816
1	1843	3817
1	1829	3818
1	1814	3819
1	1793	3820
1	1783	3821
1	1770	3822
1	1757	3823
1	1748	3824
1	1742	3825
1	1744	3826
1	1739	3827
1	1741	3828
1	1740	3829
1	1737	3830
1	1725	3831
1	1721	3832
1	1713	3833
1	1710	3834
1	1705	3835
1	1706	3836
1	1711	3837
1	1726	3838
1	1740	3839
1	1751	3840
1	1769	3841
1	1791	3842
1	1826	3843
1	1855	3844
1	1881	3845
1	1899	3846
1	1911	3847
1	1917	3848
1	1917	3849
1	1908	3850
1	1896	3851
1	1881	3852
1	1867	3853
1	1850	3854
1	1830	3855
1	1803	3856
1	1778	3857
1	1760	3858
1	1751	3859
1	1753	3860
1	1764	3861
1	1793	3862
1	1818	3863
1	1843	3864
1	1858	3865
1	1874	3866
1	1884	3867
1	1883	3868
1	1880	3869
1	1878	3870
1	1886	3871
1	1896	3872
1	1910	3873
1	1926	3874
1	1932	3875
1	1936	3876
1	1947	3877
1	1948	3878
1	1946	3879
1	1931	3880
1	1914	3881
1	1893	3882
1	1867	3883
1	1843	3884
1	1820	3885
1	1801	3886
1	1783	3887
1	1783	3888
1	1801	3889
1	1843	3890
1	1882	3891
1	1929	3892
1	1962	3893
1	1987	3894
1	2000	3895
1	1996	3896
1	1981	3897
1	1949	3898
1	1909	3899
1	1868	3900
1	1841	3901
1	1817	3902
1	1808	3903
1	1809	3904
1	1817	3905
1	1821	3906
1	1832	3907
1	1834	3908
1	1841	3909
1	1846	3910
1	1859	3911
1	1869	3912
1	1877	3913
1	1880	3914
1	1872	3915
1	1868	3916
1	1860	3917
1	1868	3918
1	1881	3919
1	1895	3920
1	1900	3921
1	1913	3922
1	1913	3923
1	1907	3924
1	1899	3925
1	1890	3926
1	1881	3927
1	1877	3928
1	1885	3929
1	1895	3930
1	1906	3931
1	1909	3932
1	1917	3933
1	1922	3934
1	1914	3935
1	1908	3936
1	1896	3937
1	1868	3938
1	1834	3939
1	1796	3940
1	1764	3941
1	1734	3942
1	1714	3943
1	1704	3944
1	1701	3945
1	1708	3946
1	1721	3947
1	1747	3948
1	1773	3949
1	1809	3950
1	1854	3951
1	1898	3952
1	1948	3953
1	1988	3954
1	2026	3955
1	2066	3956
1	2091	3957
1	2108	3958
1	2118	3959
1	2120	3960
1	2118	3961
1	2105	3962
1	2091	3963
1	2079	3964
1	2074	3965
1	2068	3966
1	2066	3967
1	2055	3968
1	2035	3969
1	2008	3970
1	1977	3971
1	1949	3972
1	1921	3973
1	1899	3974
1	1887	3975
1	1878	3976
1	1869	3977
1	1869	3978
1	1869	3979
1	1874	3980
1	1885	3981
1	1898	3982
1	1908	3983
1	1919	3984
1	1932	3985
1	1948	3986
1	1958	3987
1	1965	3988
1	1968	3989
1	1970	3990
1	1973	3991
1	1965	3992
1	1958	3993
1	1948	3994
1	1943	3995
1	1933	3996
1	1933	3997
1	1922	3998
1	1909	3999
1	1903	4000
1	1893	4001
1	1895	4002
1	1900	4003
1	1909	4004
1	1921	4005
1	1931	4006
1	1940	4006
1	1958	4008
1	1980	4009
1	1998	4010
1	2001	4011
1	2005	4012
1	2000	4013
1	1998	4014
1	1989	4014
1	1983	4016
1	1972	4017
1	1953	4018
1	1926	4019
1	1896	4020
1	1871	4021
1	1843	4022
1	1827	4022
1	1812	4024
1	1796	4025
1	1781	4026
1	1764	4027
1	1741	4028
1	1712	4029
1	1680	4030
1	1648	4030
1	1625	4032
1	1610	4033
1	1604	4034
1	1602	4035
1	1607	4036
1	1611	4037
1	1626	4038
1	1646	4038
1	1660	4040
1	1679	4041
1	1691	4042
1	1712	4043
1	1726	4044
1	1738	4045
1	1751	4046
1	1769	4046
1	1787	4048
1	1809	4049
1	1824	4050
1	1832	4051
1	1835	4052
1	1838	4053
1	1841	4054
1	1834	4054
1	1818	4056
1	1790	4057
1	1759	4058
1	1727	4059
1	1711	4060
1	1702	4061
1	1703	4062
1	1714	4062
1	1737	4064
1	1759	4065
1	1775	4066
1	1780	4067
1	1787	4068
1	1794	4069
1	1803	4070
1	1816	4070
1	1831	4072
1	1836	4073
1	1836	4074
1	1832	4075
1	1824	4076
1	1815	4077
1	1800	4078
1	1791	4078
1	1652	4100
1	1638	4101
1	1638	4102
1	1645	4103
1	1660	4104
1	1684	4105
1	1703	4106
1	1726	4107
1	1738	4108
1	1744	4109
1	1746	4110
1	1737	4111
1	1717	4112
1	1701	4113
1	1686	4114
1	1665	4115
1	1647	4116
1	1636	4117
1	1625	4118
1	1615	4119
1	1788	4100
1	1778	4101
1	1769	4102
1	1757	4103
1	1752	4104
1	1738	4105
1	1719	4106
1	1711	4107
1	1704	4108
1	1705	4109
1	1714	4110
1	1725	4111
1	1733	4112
1	1738	4113
1	1738	4114
1	1728	4115
1	1712	4116
1	1692	4117
1	1676	4118
1	1664	4119
1	1604	4120
1	1591	4121
1	1587	4122
1	1591	4123
1	1605	4124
1	1620	4125
1	1643	4126
1	1652	4127
1	1661	4128
1	1668	4129
1	1670	4130
1	1674	4131
1	1682	4132
1	1687	4133
1	1695	4134
1	1699	4135
1	1706	4136
1	1712	4137
1	1711	4138
1	1708	4139
1	1698	4140
1	1690	4141
1	1688	4142
1	1691	4143
1	1691	4144
1	1697	4145
1	1703	4146
1	1714	4147
1	1728	4148
1	1739	4149
1	1749	4150
1	1762	4151
1	1769	4152
1	1778	4153
1	1785	4154
1	1787	4155
1	1787	4156
1	1772	4157
1	1752	4158
1	1729	4159
1	1852	4180
1	1836	4181
1	1801	4182
1	1757	4183
1	1710	4184
1	1660	4185
1	1620	4186
1	1584	4187
1	1557	4188
1	1541	4189
1	1531	4190
1	1531	4191
1	1542	4192
1	1553	4193
1	1565	4194
1	1585	4195
1	1607	4196
1	1622	4197
1	1632	4198
1	1634	4199
1	1705	4160
1	1683	4161
1	1661	4162
1	1636	4163
1	1620	4164
1	1616	4165
1	1632	4166
1	1660	4167
1	1690	4168
1	1719	4169
1	1744	4170
1	1764	4171
1	1777	4172
1	1796	4173
1	1818	4174
1	1834	4175
1	1847	4176
1	1863	4177
1	1865	4178
1	1860	4179
1	1633	4200
1	1634	4201
1	1639	4202
1	1650	4203
1	1661	4204
1	1669	4205
1	1677	4206
1	1692	4207
1	1711	4208
1	1730	4209
1	1754	4210
1	1776	4211
1	1791	4212
1	1796	4213
1	1796	4214
1	1790	4215
1	1773	4216
1	1751	4217
1	1735	4218
1	1720	4219
1	1711	4220
1	1701	4221
1	1701	4222
1	1698	4223
1	1698	4224
1	1702	4225
1	1708	4226
1	1710	4227
1	1705	4228
1	1699	4229
1	1701	4230
1	1701	4231
1	1698	4232
1	1703	4233
1	1712	4234
1	1721	4235
1	1728	4236
1	1737	4237
1	1737	4238
1	1729	4239
1	1711	4240
1	1694	4241
1	1660	4242
1	1628	4243
1	1594	4244
1	1564	4245
1	1539	4246
1	1530	4247
1	1521	4248
1	1507	4249
1	1499	4250
1	1498	4251
1	1503	4252
1	1512	4253
1	1538	4254
1	1572	4255
1	1604	4256
1	1629	4257
1	1634	4258
1	1634	4259
1	1628	4260
1	1623	4261
1	1613	4262
1	1607	4263
1	1607	4264
1	1611	4265
1	1628	4266
1	1652	4267
1	1665	4268
1	1680	4269
1	1690	4270
1	1701	4271
1	1703	4272
1	1704	4273
1	1701	4274
1	1701	4275
1	1700	4276
1	1700	4277
1	1705	4278
1	1716	4279
1	1724	4280
1	1729	4281
1	1733	4282
1	1728	4283
1	1712	4284
1	1693	4285
1	1662	4286
1	1634	4287
1	1611	4288
1	1602	4289
1	1603	4290
1	1607	4291
1	1613	4292
1	1618	4293
1	1625	4294
1	1630	4295
1	1629	4296
1	1633	4297
1	1636	4298
1	1645	4299
1	1656	4300
1	1668	4301
1	1682	4302
1	1688	4303
1	1687	4304
1	1687	4305
1	1698	4306
1	1712	4307
1	1726	4308
1	1741	4309
1	1752	4310
1	1752	4311
1	1756	4312
1	1747	4313
1	1733	4314
1	1712	4315
1	1688	4316
1	1665	4317
1	1647	4318
1	1635	4319
1	1632	4320
1	1633	4321
1	1631	4322
1	1634	4323
1	1635	4324
1	1642	4325
1	1645	4326
1	1647	4327
1	1639	4328
1	1634	4329
1	1632	4330
1	1624	4331
1	1608	4332
1	1589	4333
1	1567	4334
1	1550	4335
1	1530	4336
1	1506	4337
1	1489	4338
1	1478	4339
1	1477	4340
1	1490	4341
1	1510	4342
1	1529	4343
1	1542	4344
1	1569	4345
1	1590	4346
1	1607	4347
1	1626	4348
1	1639	4349
1	1661	4350
1	1685	4351
1	1701	4352
1	1709	4353
1	1704	4354
1	1693	4355
1	1688	4356
1	1688	4357
1	1685	4358
1	1670	4359
1	1651	4360
1	1642	4361
1	1629	4362
1	1618	4363
1	1607	4364
1	1592	4365
1	1581	4366
1	1576	4367
1	1578	4368
1	1584	4369
1	1593	4370
1	1599	4371
1	1608	4372
1	1607	4373
1	1608	4374
1	1616	4375
1	1633	4376
1	1643	4377
1	1656	4378
1	1670	4379
1	1681	4380
1	1683	4381
1	1665	4382
1	1643	4383
1	1615	4384
1	1592	4385
1	1571	4386
1	1564	4387
1	1554	4388
1	1543	4389
1	1539	4390
1	1540	4391
1	1540	4392
1	1541	4393
1	1544	4394
1	1547	4395
1	1545	4396
1	1535	4397
1	1520	4398
1	1489	4399
1	1450	4400
1	1410	4401
1	1379	4402
1	1350	4403
1	1332	4404
1	1330	4405
1	1346	4406
1	1395	4407
1	1456	4408
1	1537	4409
1	1623	4410
1	1709	4411
1	1782	4412
1	1857	4413
1	1924	4414
1	1995	4415
1	2048	4416
1	2095	4417
1	2109	4418
1	2100	4419
1	1785	4440
1	1713	4441
1	1645	4442
1	1581	4443
1	1518	4444
1	1463	4445
1	1413	4446
1	1376	4447
1	1348	4448
1	1329	4449
1	1310	4450
1	1296	4451
1	1296	4452
1	1302	4453
1	1315	4454
1	1328	4455
1	1344	4456
1	1347	4457
1	1359	4458
1	1371	4459
1	2069	4420
1	2035	4421
1	2004	4422
1	1978	4423
1	1962	4424
1	1959	4425
1	1963	4426
1	1971	4427
1	1996	4428
1	2030	4429
1	2070	4430
1	2102	4431
1	2129	4432
1	2132	4433
1	2125	4434
1	2104	4435
1	2058	4436
1	2004	4437
1	1937	4438
1	1867	4439
1	1395	4460
1	1415	4461
1	1440	4462
1	1446	4463
1	1446	4464
1	1446	4465
1	1450	4466
1	1468	4467
1	1490	4468
1	1515	4469
1	1538	4470
1	1557	4471
1	1571	4472
1	1586	4473
1	1599	4474
1	1607	4475
1	1594	4476
1	1584	4477
1	1557	4478
1	1534	4479
1	1508	4480
1	1487	4481
1	1475	4482
1	1458	4483
1	1445	4484
1	1431	4485
1	1425	4486
1	1424	4487
1	1427	4488
1	1436	4489
1	1437	4490
1	1437	4491
1	1450	4492
1	1459	4493
1	1476	4494
1	1503	4495
1	1542	4496
1	1584	4497
1	1625	4498
1	1661	4499
1	1690	4500
1	1711	4501
1	1721	4502
1	1729	4503
1	1728	4504
1	1719	4505
1	1707	4506
1	1705	4507
1	1697	4508
1	1683	4509
1	1661	4510
1	1645	4511
1	1623	4512
1	1604	4513
1	1582	4514
1	1566	4515
1	1550	4516
1	1539	4517
1	1543	4518
1	1555	4519
1	1566	4520
1	1572	4521
1	1589	4522
1	1600	4523
1	1609	4524
1	1621	4525
1	1633	4526
1	1638	4527
1	1647	4528
1	1644	4529
1	1636	4530
1	1634	4531
1	1620	4532
1	1611	4533
1	1602	4534
1	1598	4535
1	1593	4536
1	1599	4537
1	1594	4538
1	1590	4539
1	1576	4540
1	1568	4541
1	1551	4542
1	1537	4543
1	1521	4544
1	1507	4545
1	1502	4546
1	1503	4547
1	1507	4548
1	1515	4549
1	1528	4550
1	1543	4551
1	1571	4552
1	1595	4553
1	1612	4554
1	1623	4555
1	1625	4556
1	1629	4557
1	1616	4558
1	1597	4559
1	1569	4560
1	1544	4561
1	1520	4562
1	1506	4563
1	1500	4564
1	1494	4565
1	1492	4566
1	1502	4567
1	1502	4568
1	1497	4569
1	1499	4570
1	1502	4571
1	1508	4572
1	1516	4573
1	1530	4574
1	1555	4575
1	1581	4576
1	1600	4577
1	1621	4578
1	1644	4579
1	1672	4580
1	1698	4581
1	1734	4582
1	1751	4583
1	1753	4584
1	1746	4585
1	1734	4586
1	1719	4587
1	1706	4588
1	1690	4589
1	1681	4590
1	1674	4591
1	1665	4592
1	1662	4593
1	1667	4594
1	1674	4595
1	1680	4596
1	1698	4597
1	1708	4598
1	1715	4599
1	1728	4600
1	1742	4601
1	1755	4602
1	1769	4603
1	1779	4604
1	1782	4605
1	1773	4606
1	1747	4607
1	1714	4608
1	1681	4609
1	1646	4610
1	1615	4611
1	1598	4612
1	1571	4613
1	1549	4614
1	1529	4615
1	1519	4616
1	1519	4617
1	1529	4618
1	1548	4619
1	1572	4620
1	1595	4621
1	1615	4622
1	1641	4623
1	1668	4624
1	1690	4625
1	1703	4626
1	1715	4627
1	1712	4628
1	1699	4629
1	1679	4630
1	1654	4631
1	1634	4632
1	1618	4633
1	1604	4634
1	1592	4635
1	1583	4636
1	1571	4637
1	1560	4638
1	1551	4639
1	1541	4640
1	1534	4641
1	1537	4642
1	1537	4643
1	1541	4644
1	1557	4645
1	1583	4646
1	1609	4647
1	1634	4648
1	1647	4649
1	1665	4650
1	1688	4651
1	1708	4652
1	1729	4653
1	1741	4654
1	1755	4655
1	1762	4656
1	1774	4657
1	1778	4658
1	1782	4659
1	1785	4660
1	1791	4661
1	1775	4662
1	1760	4663
1	1750	4664
1	1751	4665
1	1762	4666
1	1769	4667
1	1782	4668
1	1795	4669
1	1802	4670
1	1801	4671
1	1813	4672
1	1793	4673
1	1780	4674
1	1770	4675
1	1768	4676
1	1774	4677
1	1780	4678
1	1785	4679
1	1791	4680
1	1794	4681
1	1787	4682
1	1775	4683
1	1761	4684
1	1734	4685
1	1694	4686
1	1660	4687
1	1616	4688
1	1576	4689
1	1543	4690
1	1525	4691
1	1515	4692
1	1513	4693
1	1511	4694
1	1513	4695
1	1508	4696
1	1487	4697
1	1461	4698
1	1433	4699
1	1400	4700
1	1368	4701
1	1355	4702
1	1347	4703
1	1346	4704
1	1350	4705
1	1364	4706
1	1384	4707
1	1413	4708
1	1438	4709
1	1459	4710
1	1476	4711
1	1476	4712
1	1475	4713
1	1476	4714
1	1484	4715
1	1498	4716
1	1526	4717
1	1543	4718
1	1557	4719
1	1573	4720
1	1582	4721
1	1598	4722
1	1612	4723
1	1633	4724
1	1651	4725
1	1668	4726
1	1681	4727
1	1685	4728
1	1683	4729
1	1674	4730
1	1661	4731
1	1661	4732
1	1658	4733
1	1649	4734
1	1634	4735
1	1610	4736
1	1594	4737
1	1579	4738
1	1566	4739
1	1529	4760
1	1523	4761
1	1529	4762
1	1521	4763
1	1512	4764
1	1503	4765
1	1498	4766
1	1489	4767
1	1476	4768
1	1466	4769
1	1459	4770
1	1451	4771
1	1438	4772
1	1431	4773
1	1420	4774
1	1402	4775
1	1373	4776
1	1364	4777
1	1350	4778
1	1346	4779
1	1552	4740
1	1532	4741
1	1520	4742
1	1517	4743
1	1529	4744
1	1549	4745
1	1568	4746
1	1596	4747
1	1615	4748
1	1625	4749
1	1620	4750
1	1607	4751
1	1596	4752
1	1581	4753
1	1566	4754
1	1549	4755
1	1538	4756
1	1529	4757
1	1529	4758
1	1529	4759
1	1345	4780
1	1348	4781
1	1359	4782
1	1376	4783
1	1401	4784
1	1426	4785
1	1450	4786
1	1472	4787
1	1490	4788
1	1503	4789
1	1508	4790
1	1508	4791
1	1518	4792
1	1510	4793
1	1503	4794
1	1501	4795
1	1500	4796
1	1497	4797
1	1500	4798
1	1503	4799
1	1505	4800
1	1510	4801
1	1505	4802
1	1507	4803
1	1512	4804
1	1518	4805
1	1518	4806
1	1530	4807
1	1533	4808
1	1529	4809
1	1527	4810
1	1526	4811
1	1537	4812
1	1555	4813
1	1577	4814
1	1595	4815
1	1618	4816
1	1627	4817
1	1633	4818
1	1629	4819
1	1620	4820
1	1609	4821
1	1611	4822
1	1607	4823
1	1603	4824
1	1602	4825
1	1598	4826
1	1598	4827
1	1598	4828
1	1598	4829
1	1600	4830
1	1600	4831
1	1602	4832
1	1606	4833
1	1607	4834
1	1607	4835
1	1603	4836
1	1607	4837
1	1602	4838
1	1597	4839
1	1486	4860
1	1484	4861
1	1482	4862
1	1487	4863
1	1494	4864
1	1500	4865
1	1492	4866
1	1498	4867
1	1490	4868
1	1487	4869
1	1488	4870
1	1490	4871
1	1494	4872
1	1499	4873
1	1502	4874
1	1497	4875
1	1487	4876
1	1468	4877
1	1450	4878
1	1436	4879
1	1422	4880
1	1408	4881
1	1415	4882
1	1426	4883
1	1445	4884
1	1476	4885
1	1512	4886
1	1552	4887
1	1584	4888
1	1613	4889
1	1638	4890
1	1664	4891
1	1682	4892
1	1693	4893
1	1704	4894
1	1712	4895
1	1714	4896
1	1726	4897
1	1734	4898
1	1742	4899
1	1587	4840
1	1593	4841
1	1589	4842
1	1593	4843
1	1598	4844
1	1594	4845
1	1586	4846
1	1577	4847
1	1566	4848
1	1555	4849
1	1546	4850
1	1535	4851
1	1529	4852
1	1523	4853
1	1523	4854
1	1521	4855
1	1525	4856
1	1516	4857
1	1505	4858
1	1494	4859
1	1760	4900
1	1770	4901
1	1772	4902
1	1755	4903
1	1724	4904
1	1685	4905
1	1641	4906
1	1595	4907
1	1554	4908
1	1521	4909
1	1501	4910
1	1493	4911
1	1495	4912
1	1490	4913
1	1488	4914
1	1494	4915
1	1503	4916
1	1518	4917
1	1536	4918
1	1555	4919
1	1481	4940
1	1489	4941
1	1508	4942
1	1530	4943
1	1550	4944
1	1580	4945
1	1598	4946
1	1602	4947
1	1602	4948
1	1600	4949
1	1594	4950
1	1581	4951
1	1567	4952
1	1555	4953
1	1546	4954
1	1528	4955
1	1504	4956
1	1488	4957
1	1472	4958
1	1461	4959
1	1467	4960
1	1472	4961
1	1481	4962
1	1497	4963
1	1510	4964
1	1530	4965
1	1553	4966
1	1574	4967
1	1585	4968
1	1606	4969
1	1612	4970
1	1622	4971
1	1634	4972
1	1634	4973
1	1625	4974
1	1613	4975
1	1606	4976
1	1598	4977
1	1595	4978
1	1597	4979
1	1606	4980
1	1618	4981
1	1628	4982
1	1635	4983
1	1644	4984
1	1656	4985
1	1662	4986
1	1670	4987
1	1675	4988
1	1683	4989
1	1691	4990
1	1698	4991
1	1705	4992
1	1706	4993
1	1706	4994
1	1710	4995
1	1711	4996
1	1709	4997
1	1708	4998
1	1711	4999
1	1712	5000
1	1712	5001
1	1711	5002
1	1708	5003
1	1703	5004
1	1695	5005
1	1686	5006
1	1680	5007
1	1669	5008
1	1660	5009
1	1655	5010
1	1652	5011
1	1654	5012
1	1660	5013
1	1661	5014
1	1660	5015
1	1652	5016
1	1643	5017
1	1622	5018
1	1595	5019
1	1578	4920
1	1594	4921
1	1606	4922
1	1611	4923
1	1615	4924
1	1620	4925
1	1626	4926
1	1638	4927
1	1651	4928
1	1656	4929
1	1657	4930
1	1647	4931
1	1634	4932
1	1613	4933
1	1591	4934
1	1559	4935
1	1536	4936
1	1504	4937
1	1489	4938
1	1478	4939
1	1569	5020
1	1553	5021
1	1546	5022
1	1553	5023
1	1555	5024
1	1557	5025
1	1567	5026
1	1574	5027
1	1582	5028
1	1584	5029
1	1582	5030
1	1580	5031
1	1582	5032
1	1581	5033
1	1576	5034
1	1567	5035
1	1557	5036
1	1547	5037
1	1535	5038
1	1529	5039
1	1528	5040
1	1538	5041
1	1555	5042
1	1577	5043
1	1589	5044
1	1597	5045
1	1608	5046
1	1625	5047
1	1637	5048
1	1652	5049
1	1665	5050
1	1686	5051
1	1690	5052
1	1705	5053
1	1712	5054
1	1715	5055
1	1705	5056
1	1677	5057
1	1654	5058
1	1631	5059
1	1607	5060
1	1585	5061
1	1580	5062
1	1570	5063
1	1567	5064
1	1571	5065
1	1579	5066
1	1580	5067
1	1582	5068
1	1593	5069
1	1607	5070
1	1621	5071
1	1629	5072
1	1647	5073
1	1672	5074
1	1696	5075
1	1716	5076
1	1741	5077
1	1757	5078
1	1762	5079
1	1759	5080
1	1751	5081
1	1742	5082
1	1738	5083
1	1733	5084
1	1733	5085
1	1739	5086
1	1744	5087
1	1753	5088
1	1760	5089
1	1764	5090
1	1764	5091
1	1770	5092
1	1773	5093
1	1777	5094
1	1783	5095
1	1791	5096
1	1803	5097
1	1818	5098
1	1836	5099
1	1857	5100
1	1887	5101
1	1921	5102
1	1952	5103
1	1982	5104
1	2013	5105
1	2042	5106
1	2079	5107
1	2103	5108
1	2115	5109
1	2118	5110
1	2119	5111
1	2112	5112
1	2105	5113
1	2088	5114
1	2061	5115
1	2026	5116
1	1984	5117
1	1945	5118
1	1902	5119
1	1857	5120
1	1813	5121
1	1764	5122
1	1719	5123
1	1686	5124
1	1652	5125
1	1620	5126
1	1594	5127
1	1574	5128
1	1552	5129
1	1528	5130
1	1507	5131
1	1491	5132
1	1489	5133
1	1489	5134
1	1490	5135
1	1494	5136
1	1503	5137
1	1512	5138
1	1517	5139
1	1537	5140
1	1557	5141
1	1580	5142
1	1598	5143
1	1615	5144
1	1634	5145
1	1653	5146
1	1666	5147
1	1682	5148
1	1683	5149
1	1677	5150
1	1669	5151
1	1667	5152
1	1671	5153
1	1680	5154
1	1688	5155
1	1702	5156
1	1710	5157
1	1713	5158
1	1711	5159
1	1702	5160
1	1693	5161
1	1677	5162
1	1670	5163
1	1662	5164
1	1660	5165
1	1660	5166
1	1674	5167
1	1678	5168
1	1675	5169
1	1670	5170
1	1667	5171
1	1670	5172
1	1686	5173
1	1698	5174
1	1712	5175
1	1722	5176
1	1715	5177
1	1706	5178
1	1689	5179
1	1674	5180
1	1657	5181
1	1645	5182
1	1631	5183
1	1618	5184
1	1607	5185
1	1594	5186
1	1580	5187
1	1555	5188
1	1530	5189
1	1512	5190
1	1495	5191
1	1476	5192
1	1463	5193
1	1463	5194
1	1476	5195
1	1496	5196
1	1530	5197
1	1562	5198
1	1593	5199
1	1629	5200
1	1665	5201
1	1703	5202
1	1736	5203
1	1764	5204
1	1788	5205
1	1817	5206
1	1836	5207
1	1844	5208
1	1844	5209
1	1839	5210
1	1834	5211
1	1830	5212
1	1818	5213
1	1803	5214
1	1793	5215
1	1785	5216
1	1770	5217
1	1758	5218
1	1741	5219
1	1724	5220
1	1705	5221
1	1688	5222
1	1684	5223
1	1690	5224
1	1701	5225
1	1716	5226
1	1738	5227
1	1744	5228
1	1751	5229
1	1761	5230
1	1773	5231
1	1782	5232
1	1785	5233
1	1779	5234
1	1773	5235
1	1764	5236
1	1749	5237
1	1737	5238
1	1730	5239
1	1727	5240
1	1729	5241
1	1738	5242
1	1737	5243
1	1724	5244
1	1715	5245
1	1698	5246
1	1681	5247
1	1664	5248
1	1661	5249
1	1665	5250
1	1674	5251
1	1681	5252
1	1692	5253
1	1709	5254
1	1716	5255
1	1712	5256
1	1688	5257
1	1652	5258
1	1608	5259
1	1568	5260
1	1517	5261
1	1475	5262
1	1446	5263
1	1437	5264
1	1445	5265
1	1466	5266
1	1505	5267
1	1555	5268
1	1607	5269
1	1656	5270
1	1708	5271
1	1768	5272
1	1832	5273
1	1888	5274
1	1947	5275
1	1996	5276
1	2031	5277
1	2052	5278
1	2053	5279
1	2039	5280
1	2006	5281
1	1952	5282
1	1895	5283
1	1836	5284
1	1775	5285
1	1722	5286
1	1697	5287
1	1665	5288
1	1647	5289
1	1634	5290
1	1634	5291
1	1647	5292
1	1671	5293
1	1708	5294
1	1746	5295
1	1791	5296
1	1841	5297
1	1872	5298
1	1904	5299
1	1931	5300
1	1948	5301
1	1963	5302
1	1968	5303
1	1958	5304
1	1936	5305
1	1908	5306
1	1882	5307
1	1861	5308
1	1850	5309
1	1847	5310
1	1850	5311
1	1854	5312
1	1854	5313
1	1847	5314
1	1835	5315
1	1817	5316
1	1809	5317
1	1795	5318
1	1790	5319
1	1790	5320
1	1798	5321
1	1813	5322
1	1826	5323
1	1836	5324
1	1845	5325
1	1844	5326
1	1828	5327
1	1809	5328
1	1789	5329
1	1770	5330
1	1760	5331
1	1756	5332
1	1755	5333
1	1751	5334
1	1750	5335
1	1751	5336
1	1752	5337
1	1757	5338
1	1760	5339
1	1768	5340
1	1779	5341
1	1790	5342
1	1796	5343
1	1811	5344
1	1817	5345
1	1817	5346
1	1810	5347
1	1790	5348
1	1773	5349
1	1762	5350
1	1765	5351
1	1764	5352
1	1762	5353
1	1760	5354
1	1754	5355
1	1747	5356
1	1727	5357
1	1715	5358
1	1712	5359
1	1711	5360
1	1715	5361
1	1737	5362
1	1754	5363
1	1779	5364
1	1812	5365
1	1847	5366
1	1891	5367
1	1922	5368
1	1942	5369
1	1944	5370
1	1935	5371
1	1914	5372
1	1894	5373
1	1871	5374
1	1858	5375
1	1849	5376
1	1855	5377
1	1859	5378
1	1861	5379
1	1857	5380
1	1848	5381
1	1835	5382
1	1813	5383
1	1782	5384
1	1751	5385
1	1725	5386
1	1708	5387
1	1700	5388
1	1699	5389
1	1704	5390
1	1718	5391
1	1746	5392
1	1773	5393
1	1802	5394
1	1831	5395
1	1848	5396
1	1854	5397
1	1841	5398
1	1818	5399
1	1787	5400
1	1751	5401
1	1710	5402
1	1659	5403
1	1607	5404
1	1566	5405
1	1535	5406
1	1522	5407
1	1514	5408
1	1514	5409
1	1521	5410
1	1530	5411
1	1538	5412
1	1537	5413
1	1528	5414
1	1512	5415
1	1493	5416
1	1476	5417
1	1464	5418
1	1463	5419
1	1471	5420
1	1490	5421
1	1523	5422
1	1551	5423
1	1580	5424
1	1612	5425
1	1655	5426
1	1698	5427
1	1742	5428
1	1780	5429
1	1816	5430
1	1836	5431
1	1848	5432
1	1860	5433
1	1867	5434
1	1864	5435
1	1854	5436
1	1841	5437
1	1801	5438
1	1762	5439
1	1734	5440
1	1698	5441
1	1661	5442
1	1634	5443
1	1619	5444
1	1607	5445
1	1606	5446
1	1609	5447
1	1628	5448
1	1643	5449
1	1660	5450
1	1667	5451
1	1673	5452
1	1677	5453
1	1682	5454
1	1690	5455
1	1713	5456
1	1736	5457
1	1760	5458
1	1790	5459
1	1823	5460
1	1850	5461
1	1865	5462
1	1871	5463
1	1878	5464
1	1888	5465
1	1891	5466
1	1888	5467
1	1869	5468
1	1840	5469
1	1793	5470
1	1751	5471
1	1708	5472
1	1673	5473
1	1646	5474
1	1625	5475
1	1607	5476
1	1579	5477
1	1555	5478
1	1536	5479
1	1523	5480
1	1515	5481
1	1518	5482
1	1518	5483
1	1524	5484
1	1538	5485
1	1569	5486
1	1607	5487
1	1643	5488
1	1683	5489
1	1716	5490
1	1751	5491
1	1770	5492
1	1790	5493
1	1800	5494
1	1800	5495
1	1791	5496
1	1777	5497
1	1752	5498
1	1733	5499
1	1728	5500
1	1734	5501
1	1727	5502
1	1715	5503
1	1700	5504
1	1683	5505
1	1660	5506
1	1644	5507
1	1626	5508
1	1610	5509
1	1603	5510
1	1595	5511
1	1594	5512
1	1592	5513
1	1590	5514
1	1597	5515
1	1608	5516
1	1625	5517
1	1646	5518
1	1670	5519
1	1697	5520
1	1728	5521
1	1753	5522
1	1781	5523
1	1802	5524
1	1812	5525
1	1812	5526
1	1809	5527
1	1809	5528
1	1808	5529
1	1801	5530
1	1795	5531
1	1785	5532
1	1765	5533
1	1754	5534
1	1742	5535
1	1726	5536
1	1703	5537
1	1688	5538
1	1677	5539
1	1660	5540
1	1647	5541
1	1638	5542
1	1646	5543
1	1658	5544
1	1675	5545
1	1706	5546
1	1734	5547
1	1755	5548
1	1773	5549
1	1788	5550
1	1795	5551
1	1802	5552
1	1814	5553
1	1818	5554
1	1817	5555
1	1800	5556
1	1783	5557
1	1759	5558
1	1736	5559
1	1718	5560
1	1708	5561
1	1698	5562
1	1691	5563
1	1686	5564
1	1678	5565
1	1669	5566
1	1660	5567
1	1656	5568
1	1652	5569
1	1647	5570
1	1644	5571
1	1652	5572
1	1660	5573
1	1665	5574
1	1675	5575
1	1687	5576
1	1695	5577
1	1692	5578
1	1683	5579
1	1676	5580
1	1675	5581
1	1682	5582
1	1687	5583
1	1697	5584
1	1706	5585
1	1720	5586
1	1736	5587
1	1738	5588
1	1728	5589
1	1708	5590
1	1686	5591
1	1664	5592
1	1656	5593
1	1648	5594
1	1649	5595
1	1649	5596
1	1649	5597
1	1652	5598
1	1661	5599
1	1682	5600
1	1703	5601
1	1731	5602
1	1749	5603
1	1760	5604
1	1777	5605
1	1792	5606
1	1816	5607
1	1832	5608
1	1841	5609
1	1841	5610
1	1827	5611
1	1802	5612
1	1789	5613
1	1778	5614
1	1769	5615
1	1766	5616
1	1772	5617
1	1764	5618
1	1748	5619
1	1719	5620
1	1693	5621
1	1672	5622
1	1657	5623
1	1641	5624
1	1625	5625
1	1620	5626
1	1628	5627
1	1641	5628
1	1651	5629
1	1652	5630
1	1651	5631
1	1648	5632
1	1634	5633
1	1615	5634
1	1594	5635
1	1580	5636
1	1572	5637
1	1567	5638
1	1562	5639
1	1741	5660
1	1731	5661
1	1729	5662
1	1729	5663
1	1737	5664
1	1738	5665
1	1740	5666
1	1738	5667
1	1737	5668
1	1726	5669
1	1716	5670
1	1705	5671
1	1683	5672
1	1670	5673
1	1657	5674
1	1648	5675
1	1634	5676
1	1619	5677
1	1599	5678
1	1581	5679
1	1570	5640
1	1586	5641
1	1613	5642
1	1643	5643
1	1674	5644
1	1710	5645
1	1746	5646
1	1788	5647
1	1826	5648
1	1854	5649
1	1868	5650
1	1878	5651
1	1875	5652
1	1864	5653
1	1845	5654
1	1823	5655
1	1802	5656
1	1778	5657
1	1765	5658
1	1753	5659
1	1712	5700
1	1734	5701
1	1751	5702
1	1770	5703
1	1781	5704
1	1785	5705
1	1786	5706
1	1787	5707
1	1787	5708
1	1790	5709
1	1793	5710
1	1813	5711
1	1827	5712
1	1845	5713
1	1855	5714
1	1857	5715
1	1852	5716
1	1831	5717
1	1808	5718
1	1786	5719
1	1565	5680
1	1556	5681
1	1567	5682
1	1592	5683
1	1622	5684
1	1647	5685
1	1674	5686
1	1688	5687
1	1697	5688
1	1694	5689
1	1683	5690
1	1661	5691
1	1647	5692
1	1633	5693
1	1629	5694
1	1634	5695
1	1644	5696
1	1662	5697
1	1681	5698
1	1695	5699
1	1764	5720
1	1750	5721
1	1738	5722
1	1725	5723
1	1714	5724
1	1713	5725
1	1712	5726
1	1715	5727
1	1715	5728
1	1714	5729
1	1714	5730
1	1712	5731
1	1701	5732
1	1695	5733
1	1688	5734
1	1683	5735
1	1676	5736
1	1676	5737
1	1673	5738
1	1665	5739
1	1551	5760
1	1550	5761
1	1550	5762
1	1555	5763
1	1566	5764
1	1580	5765
1	1592	5766
1	1607	5767
1	1615	5768
1	1619	5769
1	1611	5770
1	1607	5771
1	1605	5772
1	1606	5773
1	1609	5774
1	1615	5775
1	1625	5776
1	1629	5777
1	1636	5778
1	1652	5779
1	1652	5740
1	1656	5741
1	1648	5742
1	1651	5743
1	1660	5744
1	1663	5745
1	1669	5746
1	1673	5747
1	1685	5748
1	1702	5749
1	1710	5750
1	1706	5751
1	1688	5752
1	1665	5753
1	1634	5754
1	1607	5755
1	1585	5756
1	1566	5757
1	1552	5758
1	1549	5759
1	1669	5780
1	1681	5781
1	1686	5782
1	1683	5783
1	1675	5784
1	1675	5785
1	1670	5786
1	1661	5787
1	1658	5788
1	1657	5789
1	1662	5790
1	1679	5791
1	1687	5792
1	1699	5793
1	1705	5794
1	1710	5795
1	1712	5796
1	1714	5797
1	1720	5798
1	1724	5799
1	1753	5800
1	1791	5801
1	1843	5802
1	1895	5803
1	1949	5804
1	2003	5805
1	2057	5806
1	2102	5807
1	2147	5808
1	2195	5809
1	2251	5810
1	2301	5811
1	2348	5812
1	2381	5813
1	2404	5814
1	2414	5815
1	2417	5816
1	2416	5817
1	2393	5818
1	2359	5819
1	2300	5820
1	2233	5821
1	2150	5822
1	2067	5823
1	1980	5824
1	1887	5825
1	1791	5826
1	1701	5827
1	1620	5828
1	1544	5829
1	1478	5830
1	1424	5831
1	1381	5832
1	1354	5833
1	1333	5834
1	1321	5835
1	1315	5836
1	1311	5837
1	1314	5838
1	1323	5839
1	1338	5840
1	1359	5841
1	1384	5842
1	1427	5843
1	1452	5844
1	1485	5845
1	1514	5846
1	1533	5847
1	1549	5848
1	1558	5849
1	1556	5850
1	1551	5851
1	1531	5852
1	1512	5853
1	1487	5854
1	1464	5855
1	1450	5856
1	1439	5857
1	1437	5858
1	1440	5859
1	1458	5860
1	1476	5861
1	1502	5862
1	1526	5863
1	1545	5864
1	1562	5865
1	1575	5866
1	1584	5867
1	1597	5868
1	1611	5869
1	1634	5870
1	1660	5871
1	1690	5872
1	1712	5873
1	1729	5874
1	1742	5875
1	1752	5876
1	1760	5877
1	1754	5878
1	1740	5879
1	1728	5880
1	1716	5881
1	1705	5882
1	1699	5883
1	1704	5884
1	1712	5885
1	1714	5886
1	1712	5887
1	1706	5888
1	1698	5889
1	1693	5890
1	1690	5891
1	1691	5892
1	1690	5893
1	1693	5894
1	1697	5895
1	1698	5896
1	1692	5897
1	1691	5898
1	1692	5899
1	1689	5900
1	1686	5901
1	1685	5902
1	1674	5903
1	1661	5904
1	1649	5905
1	1634	5906
1	1618	5907
1	1603	5908
1	1581	5909
1	1570	5910
1	1572	5911
1	1578	5912
1	1584	5913
1	1592	5914
1	1600	5915
1	1608	5916
1	1626	5917
1	1637	5918
1	1646	5919
1	1647	5920
1	1639	5921
1	1629	5922
1	1613	5923
1	1603	5924
1	1587	5925
1	1572	5926
1	1555	5927
1	1545	5928
1	1536	5929
1	1529	5930
1	1520	5931
1	1512	5932
1	1500	5933
1	1487	5934
1	1475	5935
1	1466	5936
1	1466	5937
1	1476	5938
1	1485	5939
1	1499	5940
1	1517	5941
1	1543	5942
1	1569	5943
1	1592	5944
1	1615	5945
1	1638	5946
1	1671	5947
1	1701	5948
1	1733	5949
1	1752	5950
1	1767	5951
1	1765	5952
1	1764	5953
1	1759	5954
1	1753	5955
1	1752	5956
1	1740	5957
1	1739	5958
1	1737	5959
1	1738	5960
1	1744	5961
1	1760	5962
1	1769	5963
1	1782	5964
1	1792	5965
1	1800	5966
1	1803	5967
1	1807	5968
1	1803	5969
1	1811	5970
1	1816	5971
1	1818	5972
1	1826	5973
1	1823	5974
1	1813	5975
1	1785	5976
1	1763	5977
1	1728	5978
1	1697	5979
1	1661	5980
1	1631	5981
1	1599	5982
1	1580	5983
1	1566	5984
1	1553	5985
1	1542	5986
1	1529	5987
1	1529	5988
1	1535	5989
1	1552	5990
1	1560	5991
1	1579	5992
1	1593	5993
1	1607	5994
1	1625	5995
1	1637	5996
1	1652	5997
1	1661	5998
1	1674	5999
1	1685	6000
1	1687	6001
1	1690	6002
1	1693	6003
1	1701	6004
1	1712	6005
1	1717	6006
1	1729	6007
1	1737	6008
1	1746	6009
1	1755	6010
1	1759	6011
1	1751	6012
1	1742	6013
1	1733	6014
1	1726	6015
1	1724	6016
1	1724	6017
1	1729	6018
1	1738	6019
1	1749	6020
1	1763	6021
1	1774	6022
1	1773	6023
1	1768	6024
1	1764	6025
1	1757	6026
1	1749	6027
1	1738	6028
1	1727	6029
1	1716	6030
1	1715	6031
1	1712	6032
1	1715	6033
1	1724	6034
1	1736	6035
1	1748	6036
1	1765	6037
1	1778	6038
1	1778	6039
1	1786	6040
1	1800	6041
1	1813	6042
1	1832	6043
1	1851	6044
1	1869	6045
1	1886	6046
1	1899	6047
1	1906	6048
1	1900	6049
1	1890	6050
1	1873	6051
1	1854	6052
1	1827	6053
1	1796	6054
1	1762	6055
1	1727	6056
1	1687	6057
1	1659	6058
1	1643	6059
1	1636	6060
1	1638	6061
1	1634	6062
1	1635	6063
1	1644	6064
1	1657	6065
1	1667	6066
1	1679	6067
1	1688	6068
1	1700	6069
1	1706	6070
1	1710	6071
1	1712	6072
1	1715	6073
1	1718	6074
1	1717	6075
1	1710	6076
1	1693	6077
1	1685	6078
1	1670	6079
1	1656	6080
1	1641	6081
1	1629	6082
1	1612	6083
1	1595	6084
1	1584	6085
1	1572	6086
1	1564	6087
1	1553	6088
1	1538	6089
1	1523	6090
1	1505	6091
1	1497	6092
1	1500	6093
1	1507	6094
1	1515	6095
1	1525	6096
1	1539	6097
1	1550	6098
1	1562	6099
1	1584	6100
1	1607	6101
1	1638	6102
1	1665	6103
1	1687	6104
1	1705	6105
1	1715	6106
1	1713	6107
1	1710	6108
1	1700	6109
1	1688	6110
1	1670	6111
1	1647	6112
1	1621	6113
1	1602	6114
1	1582	6115
1	1557	6116
1	1538	6117
1	1527	6118
1	1529	6119
1	1553	6140
1	1571	6141
1	1585	6142
1	1607	6143
1	1616	6144
1	1613	6145
1	1616	6146
1	1607	6147
1	1593	6148
1	1579	6149
1	1559	6150
1	1548	6151
1	1528	6152
1	1515	6153
1	1504	6154
1	1503	6155
1	1503	6156
1	1511	6157
1	1528	6158
1	1542	6159
1	1539	6120
1	1555	6121
1	1573	6122
1	1593	6123
1	1611	6124
1	1626	6125
1	1634	6126
1	1638	6127
1	1632	6128
1	1611	6129
1	1584	6130
1	1555	6131
1	1530	6132
1	1508	6133
1	1493	6134
1	1481	6135
1	1485	6136
1	1495	6137
1	1514	6138
1	1534	6139
1	1559	6160
1	1570	6161
1	1570	6162
1	1576	6163
1	1580	6164
1	1583	6165
1	1580	6166
1	1567	6167
1	1561	6168
1	1553	6169
1	1541	6170
1	1530	6171
1	1526	6172
1	1517	6173
1	1510	6174
1	1503	6175
1	1495	6176
1	1490	6177
1	1483	6178
1	1476	6179
1	1476	6180
1	1479	6181
1	1490	6182
1	1503	6183
1	1521	6184
1	1543	6185
1	1567	6186
1	1596	6187
1	1619	6188
1	1633	6189
1	1634	6190
1	1636	6191
1	1638	6192
1	1643	6193
1	1647	6194
1	1652	6195
1	1651	6196
1	1638	6197
1	1629	6198
1	1615	6199
1	1600	6200
1	1581	6201
1	1569	6202
1	1554	6203
1	1540	6204
1	1529	6205
1	1525	6206
1	1524	6207
1	1523	6208
1	1524	6209
1	1520	6210
1	1518	6211
1	1512	6212
1	1507	6213
1	1507	6214
1	1507	6215
1	1508	6216
1	1514	6217
1	1511	6218
1	1507	6219
1	1504	6220
1	1508	6221
1	1520	6222
1	1535	6223
1	1554	6224
1	1571	6225
1	1586	6226
1	1597	6227
1	1607	6228
1	1618	6229
1	1619	6230
1	1611	6231
1	1598	6232
1	1577	6233
1	1553	6234
1	1532	6235
1	1525	6236
1	1526	6237
1	1529	6238
1	1518	6239
1	1514	6240
1	1506	6241
1	1499	6242
1	1490	6243
1	1484	6244
1	1480	6245
1	1489	6246
1	1503	6247
1	1525	6248
1	1542	6249
1	1555	6250
1	1572	6251
1	1580	6252
1	1581	6253
1	1580	6254
1	1581	6255
1	1577	6256
1	1567	6257
1	1567	6258
1	1567	6259
1	1571	6260
1	1584	6261
1	1600	6262
1	1608	6263
1	1611	6264
1	1618	6265
1	1622	6266
1	1618	6267
1	1608	6268
1	1595	6269
1	1579	6270
1	1555	6271
1	1526	6272
1	1507	6273
1	1494	6274
1	1484	6275
1	1477	6276
1	1476	6277
1	1477	6278
1	1482	6279
1	1489	6280
1	1492	6281
1	1503	6282
1	1512	6283
1	1528	6284
1	1543	6285
1	1566	6286
1	1589	6287
1	1617	6288
1	1641	6289
1	1654	6290
1	1660	6291
1	1664	6292
1	1660	6293
1	1647	6294
1	1633	6295
1	1620	6296
1	1609	6297
1	1590	6298
1	1565	6299
1	1538	6300
1	1516	6301
1	1503	6302
1	1503	6303
1	1508	6304
1	1521	6305
1	1529	6306
1	1542	6307
1	1553	6308
1	1566	6309
1	1577	6310
1	1581	6311
1	1580	6312
1	1568	6313
1	1555	6314
1	1539	6315
1	1530	6316
1	1520	6317
1	1518	6318
1	1520	6319
1	1521	6320
1	1526	6321
1	1543	6322
1	1571	6323
1	1605	6324
1	1634	6325
1	1660	6326
1	1674	6327
1	1679	6328
1	1670	6329
1	1654	6330
1	1623	6331
1	1575	6332
1	1537	6333
1	1495	6334
1	1451	6335
1	1413	6336
1	1374	6337
1	1356	6338
1	1349	6339
1	1357	6340
1	1377	6341
1	1398	6342
1	1420	6343
1	1441	6344
1	1464	6345
1	1490	6346
1	1517	6347
1	1547	6348
1	1577	6349
1	1593	6350
1	1602	6351
1	1606	6352
1	1607	6353
1	1609	6354
1	1613	6355
1	1626	6356
1	1631	6357
1	1636	6358
1	1644	6359
1	1510	6380
1	1520	6381
1	1533	6382
1	1540	6383
1	1548	6384
1	1559	6385
1	1575	6386
1	1586	6387
1	1597	6388
1	1606	6389
1	1611	6390
1	1619	6391
1	1618	6392
1	1616	6393
1	1612	6394
1	1607	6395
1	1607	6396
1	1610	6397
1	1620	6398
1	1638	6399
1	1638	6360
1	1629	6361
1	1605	6362
1	1590	6363
1	1577	6364
1	1570	6365
1	1562	6366
1	1555	6367
1	1541	6368
1	1526	6369
1	1506	6370
1	1489	6371
1	1472	6372
1	1458	6373
1	1453	6374
1	1456	6375
1	1466	6376
1	1472	6377
1	1481	6378
1	1498	6379
1	1658	6400
1	1675	6401
1	1688	6402
1	1698	6403
1	1696	6404
1	1682	6405
1	1656	6406
1	1614	6407
1	1581	6408
1	1542	6409
1	1508	6410
1	1484	6411
1	1467	6412
1	1449	6413
1	1433	6414
1	1428	6415
1	1442	6416
1	1471	6417
1	1503	6418
1	1534	6419
1	1564	6420
1	1581	6421
1	1580	6422
1	1574	6423
1	1566	6424
1	1557	6425
1	1551	6426
1	1551	6427
1	1553	6428
1	1556	6429
1	1569	6430
1	1582	6431
1	1590	6432
1	1586	6433
1	1580	6434
1	1561	6435
1	1544	6436
1	1525	6437
1	1515	6438
1	1521	6439
1	1533	6440
1	1553	6441
1	1570	6442
1	1590	6443
1	1602	6444
1	1603	6445
1	1613	6446
1	1612	6447
1	1606	6448
1	1589	6449
1	1572	6450
1	1555	6451
1	1541	6452
1	1540	6453
1	1551	6454
1	1566	6455
1	1581	6456
1	1593	6457
1	1607	6458
1	1613	6459
1	1616	6460
1	1607	6461
1	1603	6462
1	1596	6463
1	1601	6464
1	1607	6465
1	1615	6466
1	1610	6467
1	1607	6468
1	1605	6469
1	1594	6470
1	1581	6471
1	1572	6472
1	1557	6473
1	1541	6474
1	1523	6475
1	1506	6476
1	1490	6477
1	1477	6478
1	1471	6479
1	1463	6480
1	1451	6481
1	1436	6482
1	1433	6483
1	1436	6484
1	1446	6485
1	1453	6486
1	1467	6487
1	1477	6488
1	1494	6489
1	1508	6490
1	1529	6491
1	1549	6492
1	1567	6493
1	1581	6494
1	1582	6495
1	1581	6496
1	1569	6497
1	1569	6498
1	1568	6499
1	1562	6500
1	1555	6501
1	1546	6502
1	1542	6503
1	1543	6504
1	1553	6505
1	1569	6506
1	1589	6507
1	1613	6508
1	1643	6509
1	1673	6510
1	1704	6511
1	1728	6512
1	1754	6513
1	1786	6514
1	1822	6515
1	1863	6516
1	1911	6517
1	1964	6518
1	2026	6519
1	2103	6520
1	2183	6521
1	2269	6522
1	2338	6523
1	2390	6524
1	2419	6525
1	2425	6526
1	2402	6527
1	2367	6528
1	2312	6529
1	2236	6530
1	2154	6531
1	2067	6532
1	1971	6533
1	1863	6534
1	1755	6535
1	1651	6536
1	1561	6537
1	1485	6538
1	1424	6539
1	1362	6540
1	1328	6541
1	1308	6542
1	1307	6543
1	1319	6544
1	1345	6545
1	1369	6546
1	1404	6547
1	1438	6548
1	1476	6549
1	1502	6550
1	1517	6551
1	1533	6552
1	1538	6553
1	1536	6554
1	1529	6555
1	1514	6556
1	1495	6557
1	1483	6558
1	1468	6559
1	1449	6560
1	1436	6561
1	1436	6562
1	1446	6563
1	1471	6564
1	1505	6565
1	1542	6566
1	1580	6567
1	1606	6568
1	1621	6569
1	1633	6570
1	1629	6571
1	1610	6572
1	1597	6573
1	1581	6574
1	1566	6575
1	1557	6576
1	1554	6577
1	1551	6578
1	1553	6579
1	1545	6600
1	1569	6601
1	1590	6602
1	1607	6603
1	1620	6604
1	1633	6605
1	1643	6606
1	1660	6607
1	1674	6608
1	1687	6609
1	1700	6610
1	1712	6611
1	1726	6612
1	1739	6613
1	1754	6614
1	1756	6615
1	1754	6616
1	1736	6617
1	1721	6618
1	1707	6619
1	1564	6580
1	1581	6581
1	1599	6582
1	1616	6583
1	1634	6584
1	1647	6585
1	1649	6586
1	1634	6587
1	1619	6588
1	1596	6589
1	1569	6590
1	1538	6591
1	1512	6592
1	1490	6593
1	1476	6594
1	1473	6595
1	1476	6596
1	1492	6597
1	1507	6598
1	1523	6599
1	1689	6620
1	1683	6621
1	1686	6622
1	1692	6623
1	1696	6624
1	1692	6625
1	1680	6626
1	1664	6627
1	1657	6628
1	1659	6629
1	1674	6630
1	1700	6631
1	1731	6632
1	1751	6633
1	1762	6634
1	1764	6635
1	1764	6636
1	1765	6637
1	1767	6638
1	1770	6639
1	1763	6640
1	1759	6641
1	1731	6642
1	1712	6643
1	1690	6644
1	1672	6645
1	1652	6646
1	1635	6647
1	1624	6648
1	1616	6649
1	1606	6650
1	1593	6651
1	1581	6652
1	1577	6653
1	1575	6654
1	1569	6655
1	1579	6656
1	1587	6657
1	1606	6658
1	1626	6659
1	1742	6700
1	1742	6701
1	1752	6702
1	1768	6703
1	1783	6704
1	1791	6705
1	1801	6706
1	1814	6707
1	1829	6708
1	1852	6709
1	1872	6710
1	1899	6711
1	1926	6712
1	1948	6713
1	1959	6714
1	1962	6715
1	1948	6716
1	1922	6717
1	1894	6718
1	1857	6719
1	1812	6680
1	1817	6681
1	1827	6682
1	1835	6683
1	1849	6684
1	1869	6685
1	1886	6686
1	1899	6687
1	1908	6688
1	1913	6689
1	1917	6690
1	1913	6691
1	1903	6692
1	1891	6693
1	1865	6694
1	1833	6695
1	1803	6696
1	1780	6697
1	1764	6698
1	1746	6699
1	1647	6660
1	1661	6661
1	1672	6662
1	1687	6663
1	1711	6664
1	1733	6665
1	1754	6666
1	1776	6667
1	1786	6668
1	1789	6669
1	1790	6670
1	1793	6671
1	1803	6672
1	1814	6673
1	1817	6674
1	1819	6675
1	1821	6676
1	1816	6677
1	1816	6678
1	1813	6679
1	1981	6740
1	1974	6741
1	1962	6742
1	1958	6743
1	1948	6744
1	1940	6745
1	1948	6746
1	1949	6747
1	1957	6748
1	1962	6749
1	1973	6750
1	1981	6751
1	1989	6752
1	2004	6753
1	2025	6754
1	2043	6755
1	2058	6756
1	2066	6757
1	2069	6758
1	2075	6759
1	1823	6720
1	1791	6721
1	1751	6722
1	1721	6723
1	1694	6724
1	1682	6725
1	1688	6726
1	1712	6727
1	1738	6728
1	1767	6729
1	1793	6730
1	1819	6731
1	1843	6732
1	1869	6733
1	1899	6734
1	1933	6735
1	1959	6736
1	1975	6737
1	1985	6738
1	1987	6739
1	2086	6760
1	2093	6761
1	2092	6762
1	2090	6763
1	2081	6764
1	2075	6765
1	2063	6766
1	2040	6767
1	2025	6768
1	2008	6769
1	1986	6770
1	1963	6771
1	1942	6772
1	1914	6773
1	1895	6774
1	1880	6775
1	1870	6776
1	1868	6777
1	1869	6778
1	1878	6779
1	1888	6780
1	1895	6781
1	1896	6782
1	1901	6783
1	1908	6784
1	1913	6785
1	1920	6786
1	1922	6787
1	1922	6788
1	1917	6789
1	1904	6790
1	1890	6791
1	1870	6792
1	1852	6793
1	1828	6794
1	1796	6795
1	1769	6796
1	1736	6797
1	1720	6798
1	1713	6799
1	1712	6800
1	1716	6801
1	1733	6802
1	1751	6803
1	1777	6804
1	1816	6805
1	1855	6806
1	1895	6807
1	1935	6808
1	1969	6809
1	1993	6810
1	2003	6811
1	2012	6812
1	2016	6813
1	2021	6814
1	2022	6815
1	2021	6816
1	2011	6817
1	1998	6818
1	1983	6819
1	1969	6820
1	1952	6821
1	1927	6822
1	1907	6823
1	1886	6824
1	1869	6825
1	1854	6826
1	1832	6827
1	1817	6828
1	1790	6829
1	1764	6830
1	1747	6831
1	1741	6832
1	1743	6833
1	1765	6834
1	1795	6835
1	1827	6836
1	1853	6837
1	1870	6838
1	1883	6839
1	1895	6840
1	1911	6841
1	1929	6842
1	1944	6843
1	1948	6844
1	1939	6845
1	1932	6846
1	1921	6847
1	1910	6848
1	1906	6849
1	1896	6850
1	1903	6851
1	1904	6852
1	1904	6853
1	1903	6854
1	1895	6855
1	1885	6856
1	1856	6857
1	1833	6858
1	1800	6859
1	1770	6860
1	1762	6861
1	1762	6862
1	1765	6863
1	1773	6864
1	1788	6865
1	1808	6866
1	1824	6867
1	1843	6868
1	1855	6869
1	1864	6870
1	1872	6871
1	1878	6872
1	1888	6873
1	1895	6874
1	1899	6875
1	1901	6876
1	1907	6877
1	1908	6878
1	1913	6879
1	1982	6900
1	2000	6901
1	2025	6902
1	2042	6903
1	2051	6904
1	2050	6905
1	2042	6906
1	2029	6907
1	2009	6908
1	1974	6909
1	1942	6910
1	1917	6911
1	1908	6912
1	1901	6913
1	1895	6914
1	1895	6915
1	1895	6916
1	1895	6917
1	1896	6918
1	1900	6919
1	1911	6880
1	1908	6881
1	1897	6882
1	1887	6883
1	1871	6884
1	1858	6885
1	1845	6886
1	1831	6887
1	1832	6888
1	1839	6889
1	1851	6890
1	1869	6891
1	1890	6892
1	1904	6893
1	1913	6894
1	1925	6895
1	1943	6896
1	1958	6897
1	1964	6898
1	1967	6899
1	1903	6920
1	1908	6921
1	1909	6922
1	1909	6923
1	1913	6924
1	1922	6925
1	1935	6926
1	1944	6927
1	1950	6928
1	1959	6929
1	1966	6930
1	1973	6931
1	1968	6932
1	1974	6933
1	1975	6934
1	1977	6935
1	1981	6936
1	1995	6937
1	2003	6938
1	2004	6939
1	1822	6960
1	1828	6961
1	1843	6962
1	1856	6963
1	1875	6964
1	1899	6965
1	1926	6966
1	1955	6967
1	1979	6968
1	2000	6969
1	2018	6970
1	2032	6971
1	2048	6972
1	2061	6973
1	2074	6974
1	2084	6975
1	2092	6976
1	2089	6977
1	2084	6978
1	2079	6979
1	2009	6940
1	2023	6941
1	2017	6942
1	2021	6943
1	2025	6944
1	2029	6945
1	2025	6946
1	2004	6947
1	1975	6948
1	1948	6949
1	1922	6950
1	1908	6951
1	1886	6952
1	1870	6953
1	1858	6954
1	1848	6955
1	1845	6956
1	1839	6957
1	1830	6958
1	1823	6959
1	2078	6980
1	2080	6981
1	2087	6982
1	2089	6983
1	2089	6984
1	2092	6985
1	2090	6986
1	2084	6987
1	2075	6988
1	2053	6989
1	2039	6990
1	2028	6991
1	2015	6992
1	2005	6993
1	1993	6994
1	1974	6995
1	1956	6996
1	1943	6997
1	1930	6998
1	1922	6999
1	1929	7000
1	1927	7001
1	1923	7002
1	1922	7003
1	1925	7004
1	1934	7005
1	1948	7006
1	1976	7007
1	2009	7008
1	2044	7009
1	2069	7010
1	2091	7011
1	2104	7012
1	2104	7013
1	2100	7014
1	2089	7015
1	2075	7016
1	2057	7017
1	2039	7018
1	2021	7019
1	2003	7020
1	1986	7021
1	1961	7022
1	1952	7023
1	1948	7024
1	1952	7025
1	1969	7026
1	1989	7027
1	2000	7028
1	2000	7029
1	1994	7030
1	1978	7031
1	1962	7032
1	1946	7033
1	1929	7034
1	1916	7035
1	1900	7036
1	1881	7037
1	1877	7038
1	1880	7039
1	1886	7040
1	1896	7041
1	1910	7042
1	1932	7043
1	1948	7044
1	1952	7045
1	1970	7046
1	1989	7047
1	2019	7048
1	2051	7049
1	2076	7050
1	2091	7051
1	2089	7052
1	2084	7053
1	2075	7054
1	2066	7055
1	2061	7056
1	2038	7057
1	2013	7058
1	1996	7059
1	1986	7060
1	1974	7061
1	1958	7062
1	1949	7063
1	1940	7064
1	1939	7065
1	1946	7066
1	1948	7067
1	1959	7068
1	1972	7069
1	1992	7070
1	2017	7071
1	2043	7072
1	2062	7073
1	2079	7074
1	2088	7075
1	2096	7076
1	2096	7077
1	2092	7078
1	2087	7079
1	2082	7080
1	2079	7081
1	2076	7082
1	2068	7083
1	2057	7084
1	2034	7085
1	2008	7086
1	1983	7087
1	1959	7088
1	1933	7089
1	1908	7090
1	1890	7091
1	1881	7092
1	1884	7093
1	1890	7094
1	1896	7095
1	1908	7096
1	1924	7097
1	1940	7098
1	1956	7099
1	1967	7100
1	1977	7101
1	1993	7102
1	2004	7103
1	2011	7104
1	2013	7105
1	2009	7106
1	1998	7107
1	1983	7108
1	1974	7109
1	1974	7110
1	1976	7111
1	1978	7112
1	1981	7113
1	1982	7114
1	1985	7115
1	1986	7116
1	1981	7117
1	1975	7118
1	1975	7119
1	2040	7140
1	2027	7141
1	2017	7142
1	2005	7143
1	1999	7144
1	1994	7145
1	1996	7146
1	1993	7147
1	1982	7148
1	1968	7149
1	1949	7150
1	1942	7151
1	1932	7152
1	1925	7153
1	1916	7154
1	1896	7155
1	1869	7156
1	1827	7157
1	1803	7158
1	1791	7159
1	1975	7120
1	1968	7121
1	1953	7122
1	1943	7123
1	1936	7124
1	1941	7125
1	1949	7126
1	1962	7127
1	1974	7128
1	1994	7129
1	2014	7130
1	2039	7131
1	2068	7132
1	2088	7133
1	2104	7134
1	2106	7135
1	2106	7136
1	2097	7137
1	2079	7138
1	2053	7139
1	1788	7160
1	1794	7161
1	1817	7162
1	1836	7163
1	1854	7164
1	1867	7165
1	1874	7166
1	1895	7167
1	1922	7168
1	1943	7169
1	1957	7170
1	1963	7171
1	1974	7172
1	1982	7173
1	1991	7174
1	1999	7175
1	1996	7176
1	1996	7177
1	1984	7178
1	1971	7179
1	1952	7180
1	1935	7181
1	1921	7182
1	1903	7183
1	1880	7184
1	1862	7185
1	1843	7186
1	1815	7187
1	1788	7188
1	1766	7189
1	1753	7190
1	1747	7191
1	1758	7192
1	1765	7193
1	1782	7194
1	1800	7195
1	1826	7196
1	1853	7197
1	1880	7198
1	1901	7199
1	1927	7200
1	1961	7201
1	2000	7202
1	2044	7203
1	2081	7204
1	2117	7205
1	2144	7206
1	2176	7207
1	2195	7208
1	2214	7209
1	2236	7210
1	2242	7211
1	2242	7212
1	2246	7213
1	2262	7214
1	2289	7215
1	2332	7216
1	2381	7217
1	2422	7218
1	2471	7219
1	2506	7220
1	2523	7221
1	2530	7222
1	2520	7223
1	2499	7224
1	2467	7225
1	2418	7226
1	2352	7227
1	2275	7228
1	2183	7229
1	2094	7230
1	2004	7231
1	1901	7232
1	1842	7233
1	1774	7234
1	1723	7235
1	1681	7236
1	1648	7237
1	1623	7238
1	1610	7239
1	1605	7240
1	1611	7241
1	1613	7242
1	1620	7243
1	1634	7244
1	1649	7245
1	1661	7246
1	1679	7247
1	1704	7248
1	1736	7249
1	1772	7250
1	1814	7251
1	1840	7252
1	1848	7253
1	1859	7254
1	1857	7255
1	1857	7256
1	1846	7257
1	1827	7258
1	1796	7259
1	1764	7260
1	1740	7261
1	1715	7262
1	1711	7263
1	1709	7264
1	1704	7265
1	1701	7266
1	1707	7267
1	1707	7268
1	1707	7269
1	1712	7270
1	1717	7271
1	1734	7272
1	1751	7273
1	1764	7274
1	1780	7275
1	1791	7276
1	1795	7277
1	1803	7278
1	1814	7279
1	1809	7280
1	1790	7281
1	1778	7282
1	1769	7283
1	1764	7284
1	1762	7285
1	1767	7286
1	1775	7287
1	1780	7288
1	1780	7289
1	1777	7290
1	1778	7291
1	1782	7292
1	1795	7293
1	1816	7294
1	1823	7295
1	1823	7296
1	1823	7297
1	1819	7298
1	1822	7299
1	1821	7300
1	1825	7301
1	1830	7302
1	1836	7303
1	1834	7304
1	1832	7305
1	1824	7306
1	1818	7307
1	1827	7308
1	1831	7309
1	1839	7310
1	1842	7311
1	1845	7312
1	1839	7313
1	1827	7314
1	1812	7315
1	1790	7316
1	1764	7317
1	1749	7318
1	1737	7319
1	1734	7320
1	1739	7321
1	1748	7322
1	1764	7323
1	1785	7324
1	1808	7325
1	1825	7326
1	1847	7327
1	1854	7328
1	1858	7329
1	1852	7330
1	1849	7331
1	1837	7332
1	1817	7333
1	1799	7334
1	1783	7335
1	1768	7336
1	1760	7337
1	1761	7338
1	1764	7339
1	1767	7340
1	1769	7341
1	1769	7342
1	1773	7343
1	1756	7344
1	1742	7345
1	1738	7346
1	1724	7347
1	1712	7348
1	1710	7349
1	1710	7350
1	1711	7351
1	1715	7352
1	1717	7353
1	1715	7354
1	1718	7355
1	1738	7356
1	1763	7357
1	1776	7358
1	1794	7359
1	1814	7360
1	1814	7361
1	1803	7362
1	1796	7363
1	1785	7364
1	1767	7365
1	1751	7366
1	1731	7367
1	1720	7368
1	1705	7369
1	1696	7370
1	1688	7371
1	1698	7372
1	1703	7373
1	1712	7374
1	1727	7375
1	1733	7376
1	1734	7377
1	1730	7378
1	1731	7379
1	1734	7380
1	1738	7381
1	1744	7382
1	1752	7383
1	1764	7384
1	1773	7385
1	1791	7386
1	1821	7387
1	1839	7388
1	1854	7389
1	1868	7390
1	1880	7391
1	1890	7392
1	1899	7393
1	1898	7394
1	1895	7395
1	1885	7396
1	1867	7397
1	1864	7398
1	1856	7399
1	1848	7400
1	1845	7401
1	1844	7402
1	1854	7403
1	1857	7404
1	1859	7405
1	1860	7406
1	1856	7407
1	1858	7408
1	1860	7409
1	1865	7410
1	1866	7411
1	1857	7412
1	1857	7413
1	1862	7414
1	1867	7415
1	1865	7416
1	1863	7417
1	1854	7418
1	1839	7419
1	1817	7420
1	1787	7421
1	1756	7422
1	1729	7423
1	1710	7424
1	1686	7425
1	1674	7426
1	1663	7427
1	1670	7428
1	1683	7429
1	1703	7430
1	1731	7431
1	1765	7432
1	1795	7433
1	1819	7434
1	1835	7435
1	1839	7436
1	1842	7437
1	1843	7438
1	1832	7439
1	1822	7440
1	1801	7441
1	1776	7442
1	1751	7443
1	1739	7444
1	1737	7445
1	1744	7446
1	1759	7447
1	1776	7448
1	1791	7449
1	1796	7450
1	1809	7451
1	1801	7452
1	1791	7453
1	1782	7454
1	1766	7455
1	1749	7456
1	1726	7457
1	1719	7458
1	1712	7459
1	1711	7460
1	1714	7461
1	1723	7462
1	1743	7463
1	1756	7464
1	1765	7465
1	1775	7466
1	1783	7467
1	1789	7468
1	1787	7469
1	1780	7470
1	1769	7471
1	1752	7472
1	1746	7473
1	1747	7474
1	1752	7475
1	1760	7476
1	1775	7477
1	1780	7478
1	1783	7479
1	1595	7500
1	1613	7501
1	1624	7502
1	1619	7503
1	1606	7504
1	1589	7505
1	1580	7506
1	1574	7507
1	1581	7508
1	1584	7509
1	1590	7510
1	1597	7511
1	1607	7512
1	1607	7513
1	1604	7514
1	1602	7515
1	1600	7516
1	1590	7517
1	1584	7518
1	1589	7519
1	1790	7480
1	1796	7481
1	1809	7482
1	1817	7483
1	1823	7484
1	1826	7485
1	1819	7486
1	1791	7487
1	1772	7488
1	1751	7489
1	1721	7490
1	1690	7491
1	1668	7492
1	1639	7493
1	1618	7494
1	1600	7495
1	1587	7496
1	1582	7497
1	1583	7498
1	1587	7499
1	1592	7520
1	1593	7521
1	1602	7522
1	1606	7523
1	1606	7524
1	1603	7525
1	1603	7526
1	1602	7527
1	1602	7528
1	1600	7529
1	1593	7530
1	1574	7531
1	1539	7532
1	1520	7533
1	1499	7534
1	1486	7535
1	1490	7536
1	1502	7537
1	1521	7538
1	1530	7539
1	1539	7540
1	1562	7541
1	1579	7542
1	1594	7543
1	1602	7544
1	1598	7545
1	1585	7546
1	1571	7547
1	1551	7548
1	1529	7549
1	1504	7550
1	1479	7551
1	1457	7552
1	1446	7553
1	1439	7554
1	1445	7555
1	1469	7556
1	1493	7557
1	1517	7558
1	1537	7559
1	1555	7560
1	1569	7561
1	1580	7562
1	1583	7563
1	1595	7564
1	1607	7565
1	1616	7566
1	1630	7567
1	1643	7568
1	1646	7569
1	1647	7570
1	1647	7571
1	1634	7572
1	1610	7573
1	1577	7574
1	1539	7575
1	1505	7576
1	1465	7577
1	1442	7578
1	1413	7579
1	1582	7600
1	1619	7601
1	1644	7602
1	1663	7603
1	1682	7604
1	1692	7605
1	1688	7606
1	1660	7607
1	1635	7608
1	1605	7609
1	1570	7610
1	1535	7611
1	1502	7612
1	1472	7613
1	1440	7614
1	1417	7615
1	1395	7616
1	1372	7617
1	1358	7618
1	1345	7619
1	1384	7580
1	1359	7581
1	1340	7582
1	1332	7583
1	1337	7584
1	1353	7585
1	1372	7586
1	1391	7587
1	1398	7588
1	1404	7589
1	1412	7590
1	1423	7591
1	1431	7592
1	1440	7593
1	1450	7594
1	1461	7595
1	1476	7596
1	1495	7597
1	1529	7598
1	1556	7599
1	1343	7620
1	1351	7621
1	1377	7622
1	1412	7623
1	1450	7624
1	1487	7625
1	1517	7626
1	1553	7627
1	1574	7628
1	1594	7629
1	1610	7630
1	1622	7631
1	1628	7632
1	1628	7633
1	1632	7634
1	1634	7635
1	1644	7636
1	1647	7637
1	1649	7638
1	1646	7639
1	1643	7640
1	1641	7641
1	1639	7642
1	1641	7643
1	1633	7644
1	1615	7645
1	1587	7646
1	1556	7647
1	1524	7648
1	1485	7649
1	1449	7650
1	1413	7651
1	1381	7652
1	1357	7653
1	1350	7654
1	1354	7655
1	1357	7656
1	1363	7657
1	1367	7658
1	1361	7659
1	1363	7660
1	1367	7661
1	1382	7662
1	1409	7663
1	1434	7664
1	1455	7665
1	1476	7666
1	1502	7667
1	1512	7668
1	1529	7669
1	1540	7670
1	1553	7671
1	1563	7672
1	1581	7673
1	1593	7674
1	1592	7675
1	1581	7676
1	1567	7677
1	1548	7678
1	1529	7679
1	1502	7680
1	1476	7681
1	1454	7682
1	1426	7683
1	1405	7684
1	1392	7685
1	1384	7686
1	1395	7687
1	1412	7688
1	1424	7689
1	1434	7690
1	1440	7691
1	1443	7692
1	1440	7693
1	1430	7694
1	1420	7695
1	1407	7696
1	1407	7697
1	1413	7698
1	1434	7699
1	1459	7700
1	1490	7701
1	1523	7702
1	1555	7703
1	1582	7704
1	1604	7705
1	1617	7706
1	1628	7707
1	1634	7708
1	1633	7709
1	1624	7710
1	1616	7711
1	1607	7712
1	1579	7713
1	1551	7714
1	1518	7715
1	1490	7716
1	1465	7717
1	1450	7718
1	1439	7719
1	1487	7740
1	1479	7741
1	1462	7742
1	1440	7743
1	1419	7744
1	1401	7745
1	1395	7746
1	1395	7747
1	1400	7748
1	1407	7749
1	1405	7750
1	1411	7751
1	1413	7752
1	1421	7753
1	1425	7754
1	1434	7755
1	1441	7756
1	1452	7757
1	1453	7758
1	1449	7759
1	1434	7740
1	1435	7741
1	1432	7742
1	1430	7743
1	1432	7744
1	1432	7745
1	1430	7746
1	1431	7747
1	1428	7748
1	1438	7749
1	1450	7750
1	1458	7751
1	1463	7752
1	1471	7753
1	1471	7754
1	1472	7755
1	1476	7756
1	1476	7757
1	1482	7758
1	1487	7759
1	1517	7780
1	1513	7781
1	1512	7782
1	1503	7783
1	1494	7784
1	1481	7785
1	1474	7786
1	1468	7787
1	1458	7788
1	1455	7789
1	1454	7790
1	1452	7791
1	1453	7792
1	1458	7793
1	1461	7794
1	1463	7795
1	1454	7796
1	1446	7797
1	1443	7798
1	1445	7799
1	1445	7800
1	1451	7801
1	1463	7802
1	1476	7803
1	1476	7804
1	1474	7805
1	1459	7806
1	1446	7807
1	1437	7808
1	1419	7809
1	1399	7810
1	1381	7811
1	1372	7812
1	1369	7813
1	1372	7814
1	1377	7815
1	1384	7816
1	1398	7817
1	1404	7818
1	1419	7819
1	1436	7760
1	1433	7761
1	1431	7762
1	1431	7763
1	1425	7764
1	1423	7765
1	1423	7766
1	1430	7767
1	1442	7768
1	1450	7769
1	1454	7770
1	1456	7771
1	1463	7772
1	1463	7773
1	1468	7774
1	1476	7775
1	1487	7776
1	1498	7777
1	1515	7778
1	1517	7779
1	1432	7820
1	1451	7821
1	1479	7822
1	1512	7823
1	1529	7824
1	1542	7825
1	1551	7826
1	1555	7827
1	1557	7828
1	1564	7829
1	1566	7830
1	1561	7831
1	1556	7832
1	1543	7833
1	1531	7834
1	1513	7835
1	1490	7836
1	1466	7837
1	1445	7838
1	1412	7839
1	1397	7840
1	1381	7841
1	1367	7842
1	1359	7843
1	1361	7844
1	1372	7845
1	1383	7846
1	1396	7847
1	1395	7848
1	1384	7849
1	1392	7850
1	1398	7851
1	1415	7852
1	1437	7853
1	1461	7854
1	1484	7855
1	1512	7856
1	1529	7857
1	1531	7858
1	1528	7859
1	1513	7860
1	1494	7861
1	1474	7862
1	1440	7863
1	1410	7864
1	1375	7865
1	1358	7866
1	1346	7867
1	1342	7868
1	1332	7869
1	1322	7870
1	1315	7871
1	1310	7872
1	1312	7873
1	1317	7874
1	1314	7875
1	1306	7876
1	1302	7877
1	1297	7878
1	1305	7879
1	1317	7880
1	1327	7881
1	1337	7882
1	1348	7883
1	1358	7884
1	1368	7885
1	1374	7886
1	1384	7887
1	1405	7888
1	1425	7889
1	1449	7890
1	1472	7891
1	1493	7892
1	1502	7893
1	1510	7894
1	1518	7895
1	1520	7896
1	1515	7897
1	1503	7898
1	1489	7899
1	1485	7900
1	1481	7901
1	1476	7902
1	1471	7903
1	1469	7904
1	1474	7905
1	1489	7906
1	1513	7907
1	1535	7908
1	1567	7909
1	1600	7910
1	1634	7911
1	1658	7912
1	1686	7913
1	1701	7914
1	1720	7915
1	1739	7916
1	1759	7917
1	1773	7918
1	1793	7919
1	1822	7920
1	1855	7921
1	1896	7922
1	1936	7923
1	1980	7924
1	2017	7925
1	2048	7926
1	2068	7927
1	2082	7928
1	2077	7929
1	2055	7930
1	2021	7931
1	1967	7932
1	1895	7933
1	1811	7934
1	1710	7935
1	1607	7936
1	1508	7937
1	1420	7938
1	1341	7939
1	1280	7940
1	1232	7941
1	1180	7942
1	1148	7943
1	1122	7944
1	1104	7945
1	1102	7946
1	1106	7947
1	1121	7948
1	1145	7949
1	1171	7950
1	1193	7951
1	1215	7952
1	1233	7953
1	1260	7954
1	1276	7955
1	1294	7956
1	1314	7957
1	1328	7958
1	1337	7959
1	1346	7960
1	1344	7961
1	1343	7962
1	1340	7963
1	1346	7964
1	1350	7965
1	1358	7966
1	1364	7967
1	1360	7968
1	1359	7969
1	1359	7970
1	1364	7971
1	1369	7972
1	1375	7973
1	1375	7974
1	1374	7975
1	1375	7976
1	1382	7977
1	1391	7978
1	1398	7979
1	1413	7980
1	1424	7981
1	1440	7982
1	1450	7983
1	1467	7984
1	1478	7985
1	1478	7986
1	1476	7987
1	1467	7988
1	1449	7989
1	1435	7990
1	1424	7991
1	1422	7992
1	1414	7993
1	1412	7994
1	1406	7995
1	1404	7996
1	1408	7997
1	1405	7998
1	1409	7999
1	1403	8000
1	1398	8000
1	1380	8002
1	1373	8003
1	1364	8004
1	1350	8005
1	1341	8006
1	1335	8007
1	1332	8008
1	1334	8009
1	1337	8010
1	1344	8011
1	1350	8012
1	1355	8013
1	1364	8013
1	1372	8015
1	1382	8016
1	1398	8016
1	1412	8018
1	1419	8019
1	1422	8020
1	1423	8021
1	1423	8022
1	1423	8023
1	1424	8024
1	1422	8025
1	1414	8026
1	1409	8027
1	1398	8028
1	1392	8029
1	1381	8029
1	1373	8031
1	1369	8032
1	1370	8032
1	1368	8034
1	1367	8035
1	1364	8036
1	1366	8037
1	1372	8038
1	1373	8039
1	1381	8040
1	1392	8041
1	1400	8042
1	1411	8043
1	1418	8044
1	1423	8045
1	1424	8045
1	1424	8047
1	1424	8048
1	1426	8048
1	1433	8050
1	1446	8051
1	1450	8052
1	1452	8053
1	1449	8054
1	1436	8055
1	1420	8056
1	1400	8057
1	1380	8058
1	1372	8059
1	1368	8060
1	1368	8061
1	1370	8061
1	1382	8063
1	1398	8064
1	1413	8064
1	1427	8066
1	1437	8067
1	1439	8068
1	1436	8069
1	1437	8070
1	1441	8071
1	1448	8072
1	1449	8073
1	1450	8074
1	1452	8074
1	1446	8076
1	1439	8077
1	1437	8077
1	1437	8079
1	1440	8080
1	1450	8080
1	1460	8082
1	1467	8083
1	1476	8084
1	1482	8085
1	1493	8086
1	1500	8087
1	1498	8088
1	1497	8089
1	1493	8090
1	1487	8090
1	1473	8092
1	1453	8093
1	1438	8093
1	1431	8095
1	1435	8096
1	1443	8096
1	1456	8098
1	1472	8099
1	1482	8100
1	1490	8101
1	1492	8102
1	1485	8103
1	1487	8104
1	1490	8105
1	1499	8106
1	1507	8106
1	1529	8108
1	1553	8109
1	1580	8109
1	1599	8111
1	1610	8112
1	1618	8113
1	1615	8114
1	1605	8115
1	1587	8116
1	1574	8117
1	1553	8118
1	1529	8119
1	1504	8120
1	1488	8121
1	1466	8122
1	1463	8122
1	1449	8124
1	1438	8125
1	1429	8125
1	1424	8127
1	1429	8128
1	1445	8129
1	1465	8130
1	1487	8131
1	1503	8132
1	1510	8133
1	1520	8134
1	1526	8135
1	1530	8136
1	1542	8137
1	1565	8138
1	1582	8138
1	1593	8140
1	1604	8141
1	1599	8141
1	1583	8143
1	1569	8144
1	1555	8145
1	1538	8146
1	1524	8147
1	1505	8148
1	1482	8149
1	1459	8150
1	1440	8151
1	1437	8152
1	1440	8153
1	1440	8154
1	1442	8154
1	1448	8156
1	1456	8157
1	1476	8157
1	1503	8159
1	1519	8180
1	1503	8181
1	1481	8182
1	1458	8183
1	1432	8184
1	1418	8185
1	1409	8186
1	1420	8186
1	1436	8188
1	1458	8189
1	1480	8189
1	1494	8191
1	1495	8192
1	1488	8193
1	1476	8194
1	1469	8195
1	1461	8196
1	1460	8197
1	1471	8198
1	1467	8199
1	1535	8160
1	1564	8161
1	1589	8162
1	1607	8163
1	1625	8164
1	1641	8165
1	1656	8166
1	1661	8167
1	1675	8168
1	1674	8169
1	1672	8170
1	1672	8170
1	1670	8172
1	1660	8173
1	1647	8173
1	1625	8175
1	1605	8176
1	1584	8177
1	1562	8178
1	1542	8179
1	1451	8200
1	1443	8201
1	1429	8202
1	1420	8203
1	1411	8204
1	1409	8205
1	1408	8206
1	1409	8207
1	1407	8208
1	1406	8209
1	1403	8210
1	1396	8211
1	1377	8212
1	1366	8213
1	1348	8214
1	1332	8215
1	1319	8216
1	1305	8217
1	1296	8218
1	1296	8219
1	1310	8220
1	1332	8221
1	1355	8222
1	1374	8223
1	1398	8224
1	1422	8225
1	1445	8226
1	1476	8227
1	1503	8228
1	1520	8229
1	1521	8230
1	1515	8231
1	1506	8232
1	1494	8233
1	1479	8234
1	1467	8235
1	1454	8236
1	1445	8237
1	1431	8238
1	1420	8239
1	1413	8240
1	1407	8241
1	1398	8242
1	1398	8243
1	1396	8244
1	1391	8245
1	1397	8246
1	1394	8247
1	1376	8248
1	1361	8249
1	1346	8250
1	1332	8251
1	1320	8252
1	1307	8253
1	1296	8254
1	1292	8255
1	1292	8256
1	1295	8257
1	1307	8258
1	1319	8259
1	1337	8260
1	1358	8261
1	1392	8262
1	1422	8263
1	1445	8264
1	1463	8265
1	1476	8266
1	1481	8267
1	1479	8268
1	1481	8269
1	1485	8270
1	1476	8271
1	1474	8272
1	1472	8273
1	1464	8274
1	1450	8275
1	1425	8276
1	1397	8277
1	1368	8278
1	1345	8279
1	1329	8280
1	1321	8281
1	1319	8282
1	1315	8283
1	1319	8284
1	1331	8285
1	1343	8286
1	1346	8287
1	1345	8288
1	1326	8289
1	1307	8290
1	1293	8291
1	1292	8292
1	1310	8293
1	1338	8294
1	1373	8295
1	1409	8296
1	1437	8297
1	1459	8298
1	1485	8299
1	1503	8300
1	1521	8301
1	1532	8302
1	1542	8303
1	1537	8304
1	1521	8305
1	1501	8306
1	1474	8307
1	1443	8308
1	1410	8309
1	1368	8310
1	1331	8311
1	1302	8312
1	1278	8313
1	1266	8314
1	1261	8315
1	1267	8316
1	1284	8317
1	1311	8318
1	1333	8319
1	1355	8320
1	1381	8321
1	1413	8322
1	1449	8323
1	1489	8324
1	1525	8325
1	1554	8326
1	1578	8327
1	1585	8328
1	1590	8329
1	1586	8330
1	1575	8331
1	1561	8332
1	1547	8333
1	1521	8334
1	1490	8335
1	1462	8336
1	1437	8337
1	1413	8338
1	1384	8339
1	1373	8340
1	1369	8341
1	1370	8342
1	1372	8343
1	1372	8344
1	1372	8345
1	1370	8346
1	1364	8347
1	1366	8348
1	1366	8349
1	1371	8350
1	1374	8351
1	1368	8352
1	1359	8353
1	1354	8354
1	1356	8355
1	1364	8356
1	1377	8357
1	1396	8358
1	1418	8359
1	1433	8360
1	1440	8361
1	1437	8362
1	1433	8363
1	1428	8364
1	1435	8365
1	1446	8366
1	1459	8367
1	1474	8368
1	1485	8369
1	1503	8370
1	1523	8371
1	1534	8372
1	1539	8373
1	1541	8374
1	1533	8375
1	1520	8376
1	1499	8377
1	1481	8378
1	1464	8379
1	1449	8380
1	1433	8381
1	1420	8382
1	1415	8383
1	1416	8384
1	1424	8385
1	1433	8386
1	1440	8387
1	1449	8388
1	1450	8389
1	1446	8390
1	1428	8391
1	1407	8392
1	1384	8393
1	1369	8394
1	1359	8395
1	1359	8396
1	1375	8397
1	1408	8398
1	1440	8399
1	1463	8400
1	1485	8401
1	1510	8402
1	1528	8403
1	1535	8404
1	1538	8405
1	1542	8406
1	1546	8407
1	1551	8408
1	1547	8409
1	1544	8410
1	1544	8411
1	1555	8412
1	1564	8413
1	1568	8414
1	1562	8415
1	1544	8416
1	1517	8417
1	1490	8418
1	1474	8419
1	1469	8440
1	1477	8441
1	1474	8442
1	1469	8443
1	1464	8444
1	1461	8445
1	1451	8446
1	1450	8447
1	1446	8448
1	1438	8449
1	1427	8450
1	1423	8451
1	1422	8452
1	1427	8453
1	1435	8454
1	1440	8455
1	1463	8456
1	1477	8457
1	1489	8458
1	1494	8459
1	1459	8420
1	1448	8421
1	1439	8422
1	1437	8423
1	1432	8424
1	1424	8425
1	1413	8426
1	1400	8427
1	1393	8428
1	1382	8429
1	1373	8430
1	1373	8431
1	1376	8432
1	1381	8433
1	1398	8434
1	1417	8435
1	1436	8436
1	1450	8437
1	1466	8438
1	1468	8439
1	1502	8460
1	1504	8461
1	1512	8462
1	1511	8463
1	1512	8464
1	1512	8465
1	1510	8466
1	1503	8467
1	1490	8468
1	1476	8469
1	1472	8470
1	1472	8471
1	1472	8472
1	1472	8473
1	1474	8474
1	1477	8475
1	1486	8476
1	1494	8477
1	1502	8478
1	1514	8479
1	1466	8500
1	1472	8501
1	1465	8502
1	1459	8503
1	1451	8504
1	1445	8505
1	1433	8506
1	1424	8507
1	1408	8508
1	1401	8509
1	1404	8510
1	1415	8511
1	1432	8512
1	1454	8513
1	1476	8514
1	1492	8515
1	1514	8516
1	1534	8517
1	1553	8518
1	1568	8519
1	1524	8480
1	1529	8481
1	1529	8482
1	1534	8483
1	1533	8484
1	1538	8485
1	1542	8486
1	1544	8487
1	1543	8488
1	1540	8489
1	1529	8490
1	1515	8491
1	1501	8492
1	1481	8493
1	1469	8494
1	1459	8495
1	1451	8496
1	1449	8497
1	1461	8498
1	1467	8499
1	1600	8540
1	1626	8541
1	1643	8542
1	1654	8543
1	1651	8544
1	1641	8545
1	1644	8546
1	1637	8547
1	1634	8548
1	1632	8549
1	1631	8550
1	1629	8551
1	1620	8552
1	1599	8553
1	1581	8554
1	1556	8555
1	1535	8556
1	1512	8557
1	1498	8558
1	1478	8559
1	1579	8520
1	1581	8521
1	1575	8522
1	1559	8523
1	1542	8524
1	1529	8525
1	1505	8526
1	1485	8527
1	1468	8528
1	1451	8529
1	1445	8530
1	1440	8531
1	1437	8532
1	1441	8533
1	1450	8534
1	1467	8535
1	1490	8536
1	1517	8537
1	1541	8538
1	1573	8539
1	1472	8560
1	1461	8561
1	1460	8562
1	1462	8563
1	1463	8564
1	1464	8565
1	1459	8566
1	1450	8567
1	1438	8568
1	1424	8569
1	1403	8570
1	1376	8571
1	1362	8572
1	1359	8573
1	1356	8574
1	1350	8575
1	1346	8576
1	1353	8577
1	1364	8578
1	1393	8579
1	1427	8580
1	1475	8581
1	1512	8582
1	1533	8583
1	1555	8584
1	1579	8585
1	1598	8586
1	1610	8587
1	1625	8588
1	1629	8589
1	1626	8590
1	1615	8591
1	1595	8592
1	1568	8593
1	1531	8594
1	1499	8595
1	1471	8596
1	1456	8597
1	1450	8598
1	1456	8599
1	1462	8600
1	1463	8601
1	1460	8602
1	1463	8603
1	1467	8604
1	1471	8605
1	1476	8606
1	1484	8607
1	1493	8608
1	1500	8609
1	1502	8610
1	1494	8611
1	1479	8612
1	1451	8613
1	1425	8614
1	1400	8615
1	1382	8616
1	1373	8617
1	1376	8618
1	1393	8619
1	1418	8620
1	1453	8621
1	1490	8622
1	1528	8623
1	1564	8624
1	1608	8625
1	1655	8626
1	1698	8627
1	1734	8628
1	1774	8629
1	1817	8630
1	1849	8631
1	1875	8632
1	1909	8633
1	1936	8634
1	1953	8635
1	1972	8636
1	1983	8637
1	2000	8638
1	2026	8639
1	2052	8640
1	2093	8641
1	2127	8642
1	2147	8643
1	2150	8644
1	2133	8645
1	2105	8646
1	2066	8647
1	2025	8648
1	1965	8649
1	1898	8650
1	1841	8651
1	1773	8652
1	1711	8653
1	1647	8654
1	1590	8655
1	1538	8656
1	1489	8657
1	1437	8658
1	1397	8659
1	1364	8660
1	1353	8661
1	1357	8662
1	1374	8663
1	1396	8664
1	1409	8665
1	1420	8666
1	1424	8667
1	1415	8668
1	1404	8669
1	1384	8670
1	1371	8671
1	1351	8672
1	1332	8673
1	1319	8674
1	1307	8675
1	1301	8676
1	1303	8677
1	1314	8678
1	1319	8679
1	1328	8680
1	1346	8681
1	1384	8682
1	1432	8683
1	1479	8684
1	1525	8685
1	1555	8686
1	1581	8687
1	1589	8688
1	1597	8689
1	1600	8690
1	1596	8691
1	1593	8692
1	1591	8693
1	1586	8694
1	1580	8695
1	1570	8696
1	1559	8697
1	1554	8698
1	1548	8699
1	1530	8700
1	1518	8701
1	1507	8702
1	1503	8703
1	1494	8704
1	1486	8705
1	1482	8706
1	1489	8707
1	1503	8708
1	1513	8709
1	1521	8710
1	1530	8711
1	1540	8712
1	1546	8713
1	1544	8714
1	1533	8715
1	1520	8716
1	1502	8717
1	1479	8718
1	1466	8719
1	1458	8720
1	1462	8721
1	1475	8722
1	1493	8723
1	1505	8724
1	1512	8725
1	1505	8726
1	1491	8727
1	1468	8728
1	1449	8729
1	1436	8730
1	1436	8731
1	1443	8732
1	1454	8733
1	1476	8734
1	1501	8735
1	1518	8736
1	1531	8737
1	1545	8738
1	1543	8739
1	1542	8740
1	1555	8741
1	1557	8742
1	1572	8743
1	1582	8744
1	1592	8745
1	1593	8746
1	1599	8747
1	1607	8748
1	1620	8749
1	1626	8750
1	1632	8751
1	1628	8752
1	1623	8753
1	1616	8754
1	1608	8755
1	1609	8756
1	1607	8757
1	1599	8758
1	1593	8759
1	1590	8760
1	1589	8761
1	1587	8762
1	1580	8763
1	1574	8764
1	1567	8765
1	1557	8766
1	1549	8767
1	1538	8768
1	1518	8769
1	1496	8770
1	1476	8771
1	1461	8772
1	1453	8773
1	1449	8774
1	1440	8775
1	1430	8776
1	1423	8777
1	1413	8778
1	1410	8779
1	1403	8780
1	1399	8781
1	1403	8782
1	1422	8783
1	1439	8784
1	1463	8785
1	1490	8786
1	1520	8787
1	1555	8788
1	1592	8789
1	1629	8790
1	1660	8791
1	1688	8792
1	1701	8793
1	1710	8794
1	1712	8795
1	1712	8796
1	1712	8797
1	1724	8798
1	1727	8799
1	1723	8800
1	1724	8801
1	1715	8802
1	1695	8803
1	1662	8804
1	1634	8805
1	1607	8806
1	1594	8807
1	1581	8808
1	1575	8809
1	1566	8810
1	1554	8811
1	1546	8812
1	1546	8813
1	1542	8814
1	1544	8815
1	1553	8816
1	1569	8817
1	1584	8818
1	1607	8819
1	1638	8840
1	1672	8841
1	1705	8842
1	1720	8843
1	1737	8844
1	1746	8845
1	1751	8846
1	1751	8847
1	1751	8848
1	1739	8849
1	1728	8850
1	1713	8851
1	1698	8852
1	1682	8853
1	1660	8854
1	1638	8855
1	1611	8856
1	1593	8857
1	1565	8858
1	1544	8859
1	1523	8840
1	1503	8841
1	1482	8842
1	1476	8843
1	1476	8844
1	1485	8845
1	1517	8846
1	1542	8847
1	1571	8848
1	1603	8849
1	1634	8850
1	1660	8851
1	1683	8852
1	1688	8853
1	1697	8854
1	1713	8855
1	1737	8856
1	1764	8857
1	1793	8858
1	1818	8859
1	1846	8860
1	1863	8861
1	1869	8862
1	1868	8863
1	1863	8864
1	1854	8865
1	1842	8866
1	1821	8867
1	1796	8868
1	1772	8869
1	1742	8870
1	1706	8871
1	1670	8872
1	1642	8873
1	1609	8874
1	1582	8875
1	1557	8876
1	1533	8877
1	1515	8878
1	1503	8879
1	1499	8880
1	1501	8881
1	1505	8882
1	1521	8883
1	1551	8884
1	1583	8885
1	1616	8886
1	1648	8887
1	1675	8888
1	1688	8889
1	1693	8890
1	1688	8891
1	1686	8892
1	1674	8893
1	1671	8894
1	1670	8895
1	1677	8896
1	1688	8897
1	1697	8898
1	1713	8899
1	1729	8900
1	1746	8901
1	1755	8902
1	1764	8903
1	1761	8904
1	1747	8905
1	1716	8906
1	1679	8907
1	1643	8908
1	1612	8909
1	1584	8910
1	1557	8911
1	1529	8912
1	1496	8913
1	1472	8914
1	1452	8915
1	1437	8916
1	1430	8917
1	1433	8918
1	1440	8919
1	1533	8940
1	1544	8941
1	1557	8942
1	1573	8943
1	1582	8944
1	1581	8945
1	1574	8946
1	1556	8947
1	1538	8948
1	1517	8949
1	1502	8950
1	1500	8951
1	1497	8952
1	1501	8953
1	1506	8954
1	1519	8955
1	1525	8956
1	1526	8957
1	1517	8958
1	1510	8959
1	1458	8920
1	1490	8921
1	1531	8922
1	1581	8923
1	1632	8924
1	1673	8925
1	1705	8926
1	1723	8927
1	1720	8928
1	1710	8929
1	1692	8930
1	1674	8931
1	1653	8932
1	1634	8933
1	1616	8934
1	1602	8935
1	1582	8936
1	1566	8937
1	1547	8938
1	1530	8939
1	1508	8960
1	1508	8961
1	1513	8962
1	1528	8963
1	1531	8964
1	1536	8965
1	1543	8966
1	1553	8967
1	1566	8968
1	1571	8969
1	1571	8970
1	1568	8971
1	1560	8972
1	1553	8973
1	1547	8974
1	1539	8975
1	1528	8976
1	1512	8977
1	1503	8978
1	1485	8979
1	1472	9000
1	1463	9001
1	1463	9002
1	1466	9003
1	1469	9004
1	1478	9005
1	1498	9006
1	1521	9007
1	1539	9008
1	1554	9009
1	1560	9010
1	1561	9011
1	1555	9012
1	1553	9013
1	1542	9014
1	1528	9015
1	1502	9016
1	1469	9017
1	1442	9018
1	1435	9019
1	1438	9000
1	1449	9001
1	1463	9002
1	1476	9003
1	1502	9004
1	1523	9005
1	1542	9006
1	1557	9007
1	1580	9008
1	1590	9009
1	1589	9010
1	1574	9011
1	1553	9012
1	1528	9013
1	1512	9014
1	1508	9015
1	1510	9016
1	1512	9017
1	1509	9018
1	1520	9019
1	1529	9020
1	1542	9021
1	1551	9022
1	1569	9023
1	1582	9024
1	1598	9025
1	1616	9026
1	1629	9027
1	1636	9028
1	1645	9029
1	1641	9030
1	1628	9031
1	1607	9032
1	1579	9033
1	1556	9034
1	1546	9035
1	1537	9036
1	1530	9037
1	1529	9038
1	1520	9039
1	1505	9040
1	1503	9041
1	1492	9042
1	1476	9043
1	1459	9044
1	1445	9045
1	1430	9046
1	1423	9047
1	1418	9048
1	1424	9049
1	1438	9050
1	1458	9051
1	1479	9052
1	1498	9053
1	1513	9054
1	1528	9055
1	1551	9056
1	1563	9057
1	1579	9058
1	1593	9059
1	1607	9060
1	1617	9061
1	1625	9062
1	1628	9063
1	1632	9064
1	1634	9065
1	1638	9066
1	1643	9067
1	1647	9068
1	1645	9069
1	1638	9070
1	1630	9071
1	1621	9072
1	1611	9073
1	1602	9074
1	1593	9075
1	1592	9076
1	1593	9077
1	1595	9078
1	1605	9079
1	1611	9080
1	1619	9081
1	1621	9082
1	1629	9083
1	1620	9084
1	1609	9085
1	1598	9086
1	1587	9087
1	1580	9088
1	1577	9089
1	1581	9090
1	1580	9091
1	1575	9092
1	1561	9093
1	1560	9094
1	1557	9095
1	1547	9096
1	1529	9097
1	1511	9098
1	1490	9099
1	1475	9100
1	1461	9101
1	1451	9102
1	1450	9103
1	1458	9104
1	1471	9105
1	1485	9106
1	1497	9107
1	1504	9108
1	1524	9109
1	1546	9110
1	1569	9111
1	1596	9112
1	1625	9113
1	1647	9114
1	1664	9115
1	1682	9116
1	1686	9117
1	1677	9118
1	1657	9119
1	1633	9120
1	1603	9121
1	1569	9122
1	1527	9123
1	1490	9124
1	1458	9125
1	1430	9126
1	1418	9127
1	1427	9128
1	1446	9129
1	1469	9130
1	1503	9131
1	1533	9132
1	1561	9133
1	1581	9134
1	1589	9135
1	1587	9136
1	1584	9137
1	1582	9138
1	1590	9139
1	1532	9160
1	1555	9161
1	1570	9162
1	1581	9163
1	1581	9164
1	1580	9165
1	1571	9166
1	1555	9167
1	1530	9168
1	1513	9169
1	1495	9170
1	1474	9171
1	1450	9172
1	1438	9173
1	1437	9174
1	1448	9175
1	1476	9176
1	1503	9177
1	1530	9178
1	1557	9179
1	1602	9140
1	1609	9141
1	1620	9142
1	1633	9143
1	1643	9144
1	1644	9145
1	1660	9146
1	1667	9147
1	1672	9148
1	1664	9149
1	1656	9150
1	1639	9151
1	1616	9152
1	1591	9153
1	1569	9154
1	1546	9155
1	1529	9156
1	1517	9157
1	1512	9158
1	1516	9159
1	1581	9180
1	1598	9181
1	1605	9182
1	1600	9183
1	1605	9184
1	1602	9185
1	1592	9186
1	1582	9187
1	1574	9188
1	1566	9189
1	1555	9190
1	1553	9191
1	1555	9192
1	1557	9193
1	1556	9194
1	1553	9195
1	1544	9196
1	1536	9197
1	1523	9198
1	1517	9199
1	1518	9200
1	1530	9201
1	1549	9202
1	1580	9203
1	1598	9204
1	1616	9205
1	1630	9206
1	1634	9207
1	1625	9208
1	1608	9209
1	1594	9210
1	1577	9211
1	1555	9212
1	1517	9213
1	1492	9214
1	1476	9215
1	1467	9216
1	1459	9217
1	1462	9218
1	1468	9219
1	1603	9240
1	1618	9241
1	1635	9242
1	1658	9243
1	1674	9244
1	1686	9245
1	1686	9246
1	1678	9247
1	1675	9248
1	1669	9249
1	1661	9250
1	1647	9251
1	1616	9252
1	1584	9253
1	1559	9254
1	1548	9255
1	1542	9256
1	1536	9257
1	1521	9258
1	1510	9259
1	1490	9220
1	1520	9221
1	1551	9222
1	1577	9223
1	1596	9224
1	1612	9225
1	1622	9226
1	1628	9227
1	1625	9228
1	1629	9229
1	1634	9230
1	1647	9231
1	1654	9232
1	1659	9233
1	1654	9234
1	1643	9235
1	1626	9236
1	1607	9237
1	1595	9238
1	1597	9239
1	1505	9260
1	1510	9261
1	1519	9262
1	1537	9263
1	1551	9264
1	1565	9265
1	1577	9266
1	1576	9267
1	1564	9268
1	1553	9269
1	1542	9270
1	1537	9271
1	1529	9272
1	1508	9273
1	1500	9274
1	1494	9275
1	1487	9276
1	1481	9277
1	1489	9278
1	1498	9279
1	1512	9280
1	1535	9281
1	1566	9282
1	1593	9283
1	1617	9284
1	1638	9285
1	1654	9286
1	1660	9287
1	1649	9288
1	1635	9289
1	1620	9290
1	1607	9291
1	1594	9292
1	1596	9293
1	1594	9294
1	1595	9295
1	1600	9296
1	1609	9297
1	1620	9298
1	1624	9299
1	1625	9300
1	1618	9301
1	1607	9302
1	1589	9303
1	1570	9304
1	1553	9305
1	1539	9306
1	1528	9307
1	1525	9308
1	1517	9309
1	1513	9310
1	1510	9311
1	1517	9312
1	1530	9313
1	1541	9314
1	1554	9315
1	1569	9316
1	1584	9317
1	1590	9318
1	1598	9319
1	1598	9320
1	1590	9321
1	1577	9322
1	1580	9323
1	1582	9324
1	1591	9325
1	1597	9326
1	1603	9327
1	1598	9328
1	1582	9329
1	1559	9330
1	1529	9331
1	1498	9332
1	1458	9333
1	1425	9334
1	1396	9335
1	1373	9336
1	1366	9337
1	1372	9338
1	1374	9339
1	1372	9340
1	1373	9341
1	1371	9342
1	1384	9343
1	1424	9344
1	1475	9345
1	1526	9346
1	1583	9347
1	1634	9348
1	1686	9349
1	1739	9350
1	1796	9351
1	1850	9352
1	1896	9353
1	1934	9354
1	1970	9355
1	2003	9356
1	2026	9357
1	2052	9358
1	2079	9359
1	2117	9360
1	2163	9361
1	2210	9362
1	2241	9363
1	2264	9364
1	2278	9365
1	2282	9366
1	2275	9367
1	2267	9368
1	2238	9369
1	2196	9370
1	2143	9371
1	2076	9372
1	1996	9373
1	1904	9374
1	1792	9375
1	1684	9376
1	1576	9377
1	1472	9378
1	1384	9379
1	1315	9380
1	1267	9381
1	1242	9382
1	1239	9383
1	1243	9384
1	1267	9385
1	1293	9386
1	1327	9387
1	1366	9388
1	1413	9389
1	1459	9390
1	1502	9391
1	1530	9392
1	1543	9393
1	1555	9394
1	1560	9395
1	1559	9396
1	1558	9397
1	1557	9398
1	1553	9399
1	1543	9400
1	1535	9401
1	1530	9402
1	1529	9403
1	1529	9404
1	1530	9405
1	1531	9406
1	1531	9407
1	1520	9408
1	1508	9409
1	1493	9410
1	1476	9411
1	1463	9412
1	1459	9413
1	1454	9414
1	1449	9415
1	1445	9416
1	1437	9417
1	1437	9418
1	1439	9419
1	1449	9420
1	1469	9421
1	1502	9422
1	1537	9423
1	1581	9424
1	1623	9425
1	1660	9426
1	1688	9427
1	1710	9428
1	1714	9429
1	1714	9430
1	1710	9431
1	1700	9432
1	1686	9433
1	1667	9434
1	1643	9435
1	1615	9436
1	1593	9437
1	1575	9438
1	1561	9439
1	1553	9440
1	1542	9441
1	1534	9442
1	1539	9443
1	1529	9444
1	1529	9445
1	1517	9446
1	1510	9447
1	1503	9448
1	1504	9449
1	1512	9450
1	1521	9451
1	1530	9452
1	1544	9453
1	1561	9454
1	1580	9455
1	1602	9456
1	1625	9457
1	1647	9458
1	1661	9459
1	1673	9460
1	1679	9461
1	1678	9462
1	1681	9463
1	1688	9464
1	1701	9465
1	1713	9466
1	1724	9467
1	1720	9468
1	1710	9469
1	1688	9470
1	1661	9471
1	1633	9472
1	1608	9473
1	1592	9474
1	1583	9475
1	1575	9476
1	1568	9477
1	1564	9478
1	1565	9479
1	1574	9480
1	1589	9481
1	1611	9482
1	1633	9483
1	1647	9484
1	1656	9485
1	1649	9486
1	1644	9487
1	1649	9488
1	1652	9489
1	1647	9490
1	1638	9491
1	1623	9492
1	1612	9493
1	1607	9494
1	1606	9495
1	1594	9496
1	1589	9497
1	1589	9498
1	1600	9499
1	1620	9500
1	1634	9501
1	1649	9502
1	1664	9503
1	1675	9504
1	1678	9505
1	1683	9506
1	1682	9507
1	1679	9508
1	1673	9509
1	1671	9510
1	1673	9511
1	1672	9512
1	1662	9513
1	1657	9514
1	1649	9515
1	1652	9516
1	1660	9517
1	1674	9518
1	1688	9519
1	1713	9520
1	1740	9521
1	1764	9522
1	1787	9523
1	1798	9524
1	1800	9525
1	1800	9526
1	1814	9527
1	1819	9528
1	1821	9529
1	1801	9530
1	1772	9531
1	1738	9532
1	1705	9533
1	1664	9534
1	1635	9535
1	1616	9536
1	1611	9537
1	1620	9538
1	1631	9539
1	1644	9540
1	1665	9541
1	1688	9542
1	1711	9543
1	1729	9544
1	1747	9545
1	1765	9546
1	1778	9547
1	1785	9548
1	1788	9549
1	1794	9550
1	1809	9551
1	1796	9552
1	1786	9553
1	1777	9554
1	1776	9555
1	1772	9556
1	1764	9557
1	1744	9558
1	1731	9559
1	1720	9560
1	1724	9561
1	1738	9562
1	1760	9563
1	1763	9564
1	1757	9565
1	1753	9566
1	1754	9567
1	1755	9568
1	1753	9569
1	1750	9570
1	1742	9571
1	1738	9572
1	1733	9573
1	1735	9574
1	1738	9575
1	1751	9576
1	1765	9577
1	1788	9578
1	1801	9579
1	1713	9600
1	1706	9601
1	1703	9602
1	1705	9603
1	1719	9604
1	1746	9605
1	1780	9606
1	1817	9607
1	1849	9608
1	1869	9609
1	1880	9610
1	1891	9611
1	1899	9612
1	1907	9613
1	1910	9614
1	1913	9615
1	1917	9616
1	1922	9617
1	1914	9618
1	1914	9619
1	1822	9580
1	1843	9581
1	1862	9582
1	1877	9583
1	1891	9584
1	1908	9585
1	1922	9586
1	1934	9587
1	1937	9588
1	1948	9589
1	1950	9590
1	1947	9591
1	1930	9592
1	1909	9593
1	1880	9594
1	1847	9595
1	1814	9596
1	1780	9597
1	1760	9598
1	1737	9599
1	1912	9620
1	1904	9621
1	1895	9622
1	1888	9623
1	1875	9624
1	1864	9625
1	1856	9626
1	1843	9627
1	1821	9628
1	1793	9629
1	1769	9630
1	1751	9631
1	1731	9632
1	1706	9633
1	1690	9634
1	1677	9635
1	1665	9636
1	1659	9637
1	1659	9638
1	1659	9639
1	1660	9640
1	1677	9641
1	1685	9642
1	1696	9643
1	1708	9644
1	1717	9645
1	1734	9646
1	1742	9647
1	1751	9648
1	1764	9649
1	1768	9650
1	1776	9651
1	1774	9652
1	1764	9653
1	1742	9654
1	1715	9655
1	1687	9656
1	1659	9657
1	1639	9658
1	1633	9659
1	1753	9680
1	1744	9681
1	1739	9682
1	1747	9683
1	1746	9684
1	1747	9685
1	1746	9686
1	1742	9687
1	1742	9688
1	1741	9689
1	1738	9690
1	1734	9691
1	1734	9692
1	1724	9693
1	1723	9694
1	1718	9695
1	1719	9696
1	1724	9697
1	1737	9698
1	1739	9699
1	1741	9700
1	1741	9701
1	1738	9702
1	1730	9703
1	1715	9704
1	1702	9705
1	1691	9706
1	1682	9707
1	1669	9708
1	1661	9709
1	1659	9710
1	1656	9711
1	1660	9712
1	1674	9713
1	1681	9714
1	1683	9715
1	1674	9716
1	1665	9717
1	1660	9718
1	1662	9719
1	1635	9660
1	1647	9661
1	1661	9662
1	1669	9663
1	1686	9664
1	1704	9665
1	1718	9666
1	1731	9667
1	1746	9668
1	1753	9669
1	1760	9670
1	1762	9671
1	1764	9672
1	1764	9673
1	1773	9674
1	1787	9675
1	1793	9676
1	1796	9677
1	1786	9678
1	1769	9679
1	1679	9720
1	1698	9721
1	1721	9722
1	1736	9723
1	1750	9724
1	1754	9725
1	1756	9726
1	1760	9727
1	1773	9728
1	1790	9729
1	1815	9730
1	1828	9731
1	1838	9732
1	1841	9733
1	1836	9734
1	1839	9735
1	1844	9736
1	1856	9737
1	1862	9738
1	1871	9739
1	1881	9740
1	1886	9741
1	1884	9742
1	1879	9743
1	1861	9744
1	1838	9745
1	1820	9746
1	1791	9747
1	1775	9748
1	1764	9749
1	1760	9750
1	1755	9751
1	1754	9752
1	1751	9753
1	1751	9754
1	1754	9755
1	1769	9756
1	1792	9757
1	1820	9758
1	1843	9759
1	1871	9760
1	1907	9761
1	1924	9762
1	1931	9763
1	1922	9764
1	1908	9765
1	1899	9766
1	1887	9767
1	1864	9768
1	1843	9769
1	1823	9770
1	1803	9771
1	1791	9772
1	1796	9773
1	1803	9774
1	1819	9775
1	1833	9776
1	1843	9777
1	1847	9778
1	1845	9779
1	1839	9780
1	1821	9781
1	1792	9782
1	1755	9783
1	1728	9784
1	1712	9785
1	1710	9786
1	1710	9787
1	1720	9788
1	1726	9789
1	1735	9790
1	1742	9791
1	1753	9792
1	1765	9793
1	1782	9794
1	1812	9795
1	1838	9796
1	1861	9797
1	1878	9798
1	1896	9799
1	1916	9800
1	1939	9801
1	1967	9802
1	1976	9803
1	1987	9804
1	1992	9805
1	1993	9806
1	1992	9807
1	1981	9808
1	1967	9809
1	1952	9810
1	1939	9811
1	1931	9812
1	1917	9813
1	1906	9814
1	1894	9815
1	1875	9816
1	1871	9817
1	1869	9818
1	1869	9819
1	1871	9820
1	1883	9821
1	1896	9822
1	1911	9823
1	1922	9824
1	1930	9825
1	1937	9826
1	1940	9827
1	1926	9828
1	1914	9829
1	1896	9830
1	1877	9831
1	1867	9832
1	1854	9833
1	1843	9834
1	1834	9835
1	1825	9836
1	1821	9837
1	1826	9838
1	1835	9839
1	1843	9840
1	1856	9841
1	1870	9842
1	1887	9843
1	1897	9844
1	1913	9845
1	1926	9846
1	1940	9847
1	1950	9848
1	1954	9849
1	1949	9850
1	1947	9851
1	1932	9852
1	1911	9853
1	1879	9854
1	1844	9855
1	1818	9856
1	1802	9857
1	1795	9858
1	1800	9859
1	1811	9860
1	1817	9861
1	1830	9862
1	1850	9863
1	1868	9864
1	1884	9865
1	1900	9866
1	1922	9867
1	1939	9868
1	1956	9869
1	1972	9870
1	1983	9871
1	1991	9872
1	1993	9873
1	2001	9874
1	2013	9875
1	2025	9876
1	2021	9877
1	2012	9878
1	1985	9879
1	1953	9880
1	1924	9881
1	1909	9882
1	1904	9883
1	1905	9884
1	1902	9885
1	1898	9886
1	1895	9887
1	1886	9888
1	1887	9889
1	1887	9890
1	1886	9891
1	1890	9892
1	1887	9893
1	1891	9894
1	1894	9895
1	1896	9896
1	1905	9897
1	1918	9898
1	1931	9899
1	1943	9900
1	1945	9901
1	1948	9902
1	1935	9903
1	1926	9904
1	1911	9905
1	1895	9906
1	1877	9907
1	1856	9908
1	1843	9909
1	1843	9910
1	1853	9911
1	1869	9912
1	1895	9913
1	1914	9914
1	1932	9915
1	1948	9916
1	1961	9917
1	1968	9918
1	1980	9919
1	1992	9920
1	2000	9921
1	2012	9922
1	2021	9923
1	2027	9924
1	2026	9925
1	2021	9926
1	2013	9927
1	2000	9928
1	1985	9929
1	1970	9930
1	1957	9931
1	1953	9932
1	1953	9933
1	1962	9934
1	1973	9935
1	1979	9936
1	1992	9937
1	1996	9938
1	2001	9939
1	2003	9940
1	2016	9941
1	2012	9942
1	2012	9943
1	2012	9944
1	2001	9945
1	2000	9946
1	1999	9947
1	1997	9948
1	1992	9949
1	1978	9950
1	1959	9951
1	1930	9952
1	1895	9953
1	1869	9954
1	1851	9955
1	1854	9956
1	1856	9957
1	1854	9958
1	1856	9959
1	1866	9980
1	1878	9981
1	1890	9982
1	1887	9983
1	1890	9984
1	1892	9985
1	1895	9986
1	1908	9987
1	1930	9988
1	1945	9989
1	1958	9990
1	1976	9991
1	2000	9992
1	2019	9993
1	2032	9994
1	2039	9995
1	2042	9996
1	2039	9997
1	2025	9998
1	2021	9999
1	2021	9980
1	2015	9981
1	2012	9982
1	2015	9983
1	2014	9984
1	2009	9985
1	1998	9986
1	1974	9987
1	1948	9988
1	1922	9989
1	1908	9990
1	1895	9991
1	1882	9992
1	1869	9993
1	1871	9994
1	1881	9995
1	1895	9996
1	1904	9997
1	1904	9998
1	1895	9999
1	1893	10000
1	1894	10001
1	1899	10002
1	1919	10003
1	1935	10004
1	1953	10005
1	1971	10006
1	1981	10007
1	1979	10008
1	1978	10009
1	1982	10010
1	1985	10011
1	1992	10012
1	1993	10013
1	1992	10014
1	1998	10015
1	2000	10016
1	2006	10017
1	2001	10018
1	1998	10019
1	1985	10020
1	1969	10021
1	1947	10022
1	1913	10023
1	1888	10024
1	1868	10025
1	1852	10026
1	1848	10027
1	1844	10028
1	1843	10029
1	1835	10030
1	1830	10031
1	1833	10032
1	1843	10033
1	1853	10034
1	1865	10035
1	1880	10036
1	1898	10037
1	1922	10038
1	1962	10039
1	2003	10040
1	2047	10041
1	2088	10042
1	2135	10043
1	2179	10044
1	2211	10045
1	2265	10046
1	2312	10047
1	2345	10048
1	2388	10049
1	2428	10050
1	2471	10051
1	2503	10052
1	2527	10053
1	2550	10054
1	2569	10055
1	2573	10056
1	2563	10057
1	2538	10058
1	2509	10059
1	2473	10060
1	2444	10061
1	2399	10062
1	2350	10063
1	2296	10064
1	2238	10065
1	2179	10066
1	2127	10067
1	2071	10068
1	2026	10069
1	1985	10070
1	1943	10071
1	1897	10072
1	1856	10073
1	1814	10074
1	1779	10075
1	1758	10076
1	1742	10077
1	1737	10078
1	1737	10079
1	1738	10080
1	1744	10081
1	1754	10082
1	1754	10083
1	1760	10084
1	1762	10085
1	1770	10086
1	1793	10087
1	1817	10088
1	1834	10089
1	1854	10090
1	1867	10091
1	1877	10092
